# Time (s), acceleration Magnitude (m/s²), Vz (m/s), Z (m)
0.000000,71.195328,0.000000,906.565430
0.006110,71.204258,0.433378,906.568077
0.012219,71.213147,0.866811,906.573373
0.022219,71.227608,1.576304,906.585589
0.032219,71.241932,2.285941,906.604900
0.042219,71.256133,2.995720,906.631309
0.052219,71.270207,3.705640,906.664815
0.062219,71.284082,4.415699,906.705422
0.072219,71.297825,5.125896,906.753130
0.082219,71.311380,5.836229,906.807941
0.092219,71.324796,6.546696,906.869855
0.102219,71.338165,7.257296,906.938875
0.112219,71.351341,7.968029,907.015002
0.122219,71.364387,8.678892,907.098236
0.132219,71.377297,9.389885,907.188580
0.142219,71.390042,10.101005,907.286035
0.152219,71.402710,10.812252,907.390601
0.162219,71.415220,11.523625,907.502280
0.172219,71.427578,12.235121,907.621074
0.182219,71.439828,12.946740,907.746983
0.192219,71.451856,13.658480,907.880009
0.202219,71.463774,14.370339,908.020153
0.212219,71.475589,15.082316,908.167416
0.222219,71.487301,15.794410,908.321800
0.232219,71.498909,16.506621,908.483305
0.242219,71.510432,17.218947,908.651932
0.252219,71.521662,17.931386,908.827684
0.262219,71.532770,18.643936,909.010561
0.272219,71.543777,19.356597,909.200563
0.282219,71.554684,20.069367,909.397693
0.292219,71.565502,20.782245,909.601951
0.302219,71.576221,21.495230,909.813338
0.312219,71.586639,22.208320,910.031856
0.322219,71.596941,22.921514,910.257505
0.328973,71.603842,23.403218,910.413929
0.331244,71.616137,23.565131,910.467463
0.333516,71.618519,23.727048,910.521364
0.338060,71.623048,24.050895,910.629903
0.342603,71.627615,24.374762,910.739912
0.347147,71.632247,24.698650,910.851394
0.357147,71.642228,25.411592,911.101945
0.367147,71.651971,26.124631,911.359626
0.377147,71.661513,26.837766,911.624438
0.387147,71.671113,27.550992,911.896382
0.397147,71.680465,28.264309,912.175458
0.407147,71.689709,28.977713,912.461668
0.417147,71.699208,29.691203,912.755013
0.427147,71.708105,30.404778,913.055493
0.437147,71.716946,31.118430,913.363108
0.447147,71.725875,31.832159,913.677861
0.457147,71.734505,32.545962,913.999752
0.467147,71.743115,33.259837,914.328781
0.477147,71.751701,33.973780,914.664949
0.487147,71.760099,34.687790,915.008257
0.497147,71.768367,35.401863,915.358705
0.507147,71.776478,36.115995,915.716294
0.517147,71.784515,36.830184,916.081025
0.527147,71.792503,37.544427,916.452898
0.537147,71.800387,38.258721,916.831914
0.547147,71.808057,38.973063,917.218073
0.557147,71.815605,39.687448,917.611375
0.567147,71.823055,40.401873,918.011822
0.577147,71.830509,41.116336,918.419413
0.587147,71.837810,41.830833,918.834149
0.597147,71.844987,42.545361,919.256030
0.607147,71.851958,43.259915,919.685056
0.617147,71.858899,43.974493,920.121228
0.627147,71.865737,44.689089,920.564546
0.637147,71.872341,45.403701,921.015010
0.647147,71.879130,46.118325,921.472620
0.657147,71.885605,46.832958,921.937376
0.667147,71.892037,47.547594,922.409279
0.677147,71.898398,48.262232,922.888328
0.687147,71.904778,48.976866,923.374524
0.697147,71.910842,49.691493,923.867866
0.707147,71.916677,50.406107,924.368354
0.717147,71.922440,51.120704,924.875988
0.727147,71.928359,51.835279,925.390768
0.737147,71.934050,52.549830,925.912693
0.747147,71.939736,53.264352,926.441764
0.757147,71.945278,53.978841,926.977980
0.767147,71.950846,54.693292,927.521341
0.777147,71.955912,55.407700,928.071846
0.787147,71.961085,56.122060,928.629495
0.797147,71.966198,56.836367,929.194287
0.807147,71.971080,57.550617,929.766222
0.817147,71.975973,58.264805,930.345299
0.827147,71.980806,58.978926,930.931518
0.837147,71.985661,59.692977,931.524877
0.847147,71.990456,60.406954,932.125377
0.857147,71.994793,61.120851,932.733016
0.867147,71.999022,61.834660,933.347794
0.877147,72.003300,62.548379,933.969709
0.887147,72.007348,63.262001,934.598761
0.897147,72.011416,63.975522,935.234949
0.907147,72.015405,64.688939,935.878271
0.917147,72.019351,65.402246,936.528727
0.927147,72.023230,66.115441,937.186316
0.937147,72.026921,66.828517,937.851035
0.947147,72.030317,67.541470,938.522885
0.957147,72.033651,68.254294,939.201864
0.967147,72.036828,68.966984,939.887971
0.977147,72.040069,69.679538,940.581204
0.987147,72.043205,70.391951,941.281561
0.997147,72.046061,71.104219,941.989042
1.007147,72.049015,71.816340,942.703645
1.017147,72.051700,72.528309,943.425368
1.027147,72.054109,73.240121,944.154211
1.037147,72.056427,73.951773,944.890170
1.047147,72.058613,74.663262,945.633246
1.057147,72.060859,75.374585,946.383435
1.067147,72.062811,76.085741,947.140737
1.077147,72.064660,76.796727,947.905149
1.087147,72.066540,77.507541,948.676671
1.097147,72.068264,78.218182,949.455299
1.107147,72.069465,78.928648,950.241034
1.117147,72.070574,79.638936,951.033872
1.127147,72.071476,80.349044,951.833812
1.137147,72.072468,81.058974,952.640852
1.147147,72.073114,81.768725,953.454991
1.157147,72.073677,82.478298,954.276226
1.167147,72.074126,83.187694,955.104556
1.177147,72.074483,83.896914,955.939979
1.187147,72.074311,84.605959,956.782494
1.197147,72.073871,85.314828,957.632098
1.207147,72.073267,86.023524,958.488790
1.217147,72.072467,86.732048,959.352568
1.227147,72.071826,87.440405,960.223430
1.237147,72.070740,88.148601,961.101375
1.247147,72.069323,88.856637,961.986402
1.257147,72.067773,89.564517,962.878508
1.267147,72.065967,90.272245,963.777692
1.277147,72.063639,90.979825,964.683952
1.287147,72.061194,91.687260,965.597288
1.297147,72.058540,92.394558,966.517697
1.307147,72.055424,93.101722,967.445178
1.317147,72.052313,93.808761,968.379731
1.327147,72.049060,94.515680,969.321353
1.337147,72.045479,95.222488,970.270044
1.347147,72.041588,95.929191,971.225803
1.357147,72.037551,96.635795,972.188628
1.367147,72.033199,97.342309,973.158518
1.377147,72.028603,98.048740,974.135473
1.387147,72.023302,98.755094,975.119493
1.397147,72.017957,99.461376,976.110575
1.407147,72.012235,100.167594,977.108720
1.417147,72.006247,100.873756,978.113927
1.427147,72.000108,101.579870,979.126195
1.437147,71.993613,102.285944,980.145524
1.447147,71.986880,102.991985,981.171914
1.457147,71.979940,103.698000,982.205364
1.467147,71.972766,104.403996,983.245874
1.477147,71.965331,105.109981,984.293444
1.487147,71.957779,105.815962,985.348073
1.497147,71.949431,106.521943,986.409763
1.507147,71.940842,107.227927,987.478512
1.517147,71.932084,107.933920,988.554321
1.527147,71.923093,108.639928,989.637191
1.537147,71.913897,109.345955,990.727120
1.547147,71.904447,110.052005,991.824110
1.557147,71.894859,110.758083,992.928160
1.567147,71.885096,111.464192,994.039272
1.577147,71.875056,112.170335,995.157444
1.587147,71.864900,112.876515,996.282678
1.597147,71.854636,113.582732,997.414975
1.607147,71.843800,114.288987,998.554333
1.617147,71.832636,114.995279,999.700754
1.627147,71.821466,115.701604,1000.854239
1.637147,71.810039,116.407965,1002.014787
1.647147,71.798447,117.114358,1003.182398
1.657147,71.786822,117.820783,1004.357074
1.667147,71.775056,118.527238,1005.538814
1.677147,71.763067,119.233717,1006.727619
1.687147,71.751223,119.940219,1007.923488
1.697147,71.739282,120.646741,1009.126423
1.707147,71.726990,121.353276,1010.336423
1.717147,71.714523,122.059819,1011.553489
1.727147,71.701865,122.766361,1012.777620
1.737147,71.689139,123.472895,1014.008816
1.747147,71.676239,124.179415,1015.247077
1.757147,71.663259,124.885913,1016.492404
1.767147,71.650336,125.592382,1017.744796
1.777147,71.637352,126.298813,1019.004252
1.787147,71.624272,127.005198,1020.270772
1.797147,71.611348,127.711530,1021.544355
1.807147,71.598064,128.417797,1022.825002
1.817147,71.584950,129.123991,1024.112711
1.827147,71.571753,129.830101,1025.407482
1.837147,71.558141,130.536117,1026.709313
1.847147,71.544538,131.242026,1028.018204
1.857147,71.530775,131.947816,1029.334153
1.867147,71.517060,132.653477,1030.657160
1.877147,71.503323,133.358999,1031.987222
1.887147,71.489761,134.064371,1033.324339
1.897147,71.476039,134.769583,1034.668509
1.907147,71.462180,135.474623,1036.019730
1.917147,71.448381,136.179480,1037.378001
1.927147,71.434657,136.884142,1038.743319
1.937147,71.420837,137.588601,1040.115683
1.947147,71.406632,138.292843,1041.495090
1.957147,71.392279,138.996855,1042.881539
1.967147,71.377975,139.700625,1044.275027
1.977147,71.363521,140.404145,1045.675551
1.987147,71.349136,141.107403,1047.083109
1.997147,71.334718,141.810393,1048.497698
2.007147,71.320068,142.513102,1049.919316
2.017147,71.305484,143.215524,1051.347959
2.027147,71.290792,143.917649,1052.783625
2.037147,71.276150,144.619471,1054.226311
2.047147,71.261288,145.320983,1055.676013
2.057147,71.246189,146.022178,1057.132730
2.067147,71.230774,146.723048,1058.596456
2.077147,71.215177,147.423588,1060.067189
2.087147,71.199498,148.123792,1061.544927
2.097147,71.183583,148.823659,1063.029664
2.107147,71.167713,149.523186,1064.521399
2.117147,71.151543,150.222374,1066.020127
2.127147,71.135266,150.921222,1067.525845
2.137147,71.118690,151.619730,1069.038550
2.147147,71.101930,152.317900,1070.558238
2.157147,71.085062,153.015736,1072.084907
2.167147,71.067905,153.713242,1073.618552
2.177147,71.049855,154.410420,1075.159171
2.187147,71.031756,155.107274,1076.706759
2.197147,71.013136,155.803809,1078.261315
2.207147,70.994421,156.500033,1079.822835
2.217147,70.975141,157.195954,1081.391315
2.227147,70.955992,157.891584,1082.966753
2.237147,70.936239,158.586931,1084.549145
2.247147,70.916070,159.282006,1086.138490
2.257147,70.895587,159.976817,1087.734785
2.267147,70.874830,160.671375,1089.338026
2.277147,70.853662,161.365693,1090.948211
2.287147,70.831990,162.059781,1092.565339
2.297147,70.810076,162.753649,1094.189406
2.307147,70.787741,163.447309,1095.820411
2.317147,70.765240,164.140774,1097.458352
2.327147,70.741857,164.834051,1099.103226
2.337147,70.717932,165.527149,1100.755032
2.347147,70.693668,166.220074,1102.413768
2.357147,70.669162,166.912836,1104.079433
2.367147,70.644328,167.605444,1105.752025
2.377147,70.619143,168.297905,1107.431542
2.387147,70.593642,168.990224,1109.117982
2.397147,70.568041,169.682408,1110.811346
2.407147,70.542120,170.374460,1112.511630
2.417147,70.516036,171.066384,1114.218834
2.427147,70.489609,171.758182,1115.932957
2.437147,70.463038,172.449853,1117.653998
2.447147,70.436384,173.141397,1119.381954
2.457147,70.409443,173.832813,1121.116825
2.467147,70.382496,174.524098,1122.858610
2.477147,70.355049,175.215246,1124.607307
2.487147,70.327222,175.906249,1126.362914
2.497147,70.299237,176.597098,1128.125431
2.507147,70.271135,177.287785,1129.894856
2.517147,70.243087,177.978303,1131.671186
2.527147,70.214666,178.668641,1133.454421
2.537147,70.186306,179.358787,1135.244558
2.547147,70.157836,180.048731,1137.041596
2.557147,70.129373,180.738460,1138.845532
2.567147,70.100720,181.427962,1140.656365
2.577147,70.071355,182.117219,1142.474091
2.587147,70.041884,182.806215,1144.298708
2.597147,70.012476,183.494933,1146.130214
2.607147,69.983048,184.183361,1147.968606
2.617147,69.953511,184.871486,1149.813880
2.627147,69.923929,185.559292,1151.666034
2.637147,69.893604,186.246761,1153.525065
2.647147,69.863389,186.933876,1155.390968
2.657147,69.832991,187.620622,1157.263741
2.667147,69.802614,188.306988,1159.143380
2.677147,69.772073,188.992959,1161.029880
2.687147,69.741537,189.678524,1162.923237
2.697147,69.710943,190.363672,1164.823449
2.707147,69.680254,191.048391,1166.730509
2.717147,69.649367,191.732672,1168.644415
2.727147,69.618414,192.416506,1170.565161
2.737147,69.587367,193.099887,1172.492744
2.747147,69.556155,193.782808,1174.427158
2.757147,69.524773,194.465264,1176.368398
2.767147,69.493196,195.147253,1178.316461
2.777147,69.461368,195.828772,1180.271342
2.787147,69.428895,196.509818,1182.233035
2.797147,69.396027,197.190390,1184.201537
2.807147,69.362952,197.870488,1186.176841
2.817147,69.329407,198.550118,1188.158945
2.827147,69.295653,199.229283,1190.147842
2.837147,69.261514,199.907990,1192.143529
2.847147,69.227096,200.586247,1194.146001
2.857147,69.192258,201.264064,1196.155252
2.867147,69.156590,201.941446,1198.171280
2.877147,69.120533,202.618404,1200.194080
2.887147,69.084050,203.294946,1202.223647
2.897147,69.047244,203.971085,1204.259978
2.907147,69.009880,204.646833,1206.303067
2.917147,68.971386,205.322198,1208.352913
2.927147,68.932678,205.997188,1210.409510
2.937147,68.893473,206.671814,1212.472855
2.947147,68.853891,207.346088,1214.542945
2.957147,68.813905,208.020021,1216.619776
2.967147,68.773368,208.693619,1218.703345
2.977147,68.732571,209.366891,1220.793647
2.987147,68.691341,210.039843,1222.890681
2.997147,68.649883,210.712481,1224.994443
3.007147,68.608101,211.384809,1227.104930
3.017147,68.565781,212.056830,1229.222138
3.027147,68.523482,212.728543,1231.346065
3.037147,68.480512,213.399948,1233.476708
3.047147,68.437132,214.071039,1235.614063
3.057147,68.393523,214.741811,1237.758128
3.067147,68.349652,215.412258,1239.908899
3.077147,68.305616,216.082373,1242.066372
3.087147,68.261459,216.752149,1244.230545
3.097147,68.217278,217.421575,1246.401414
3.107147,68.172882,218.090641,1248.578975
3.117147,68.128181,218.759335,1250.763225
3.127147,68.083553,219.427642,1252.954161
3.137147,68.038728,220.095549,1255.151777
3.147147,67.993959,220.763042,1257.356070
3.157147,67.948970,221.430108,1259.567036
3.167147,67.903240,222.096726,1261.784671
3.177147,67.857419,222.762878,1264.008969
3.187147,67.811570,223.428549,1266.239927
3.197147,67.765692,224.093724,1268.477539
3.207147,67.719561,224.758389,1270.721800
3.217147,67.673136,225.422529,1272.972705
3.227147,67.626769,226.086130,1275.230248
3.237147,67.580284,226.749179,1277.494425
3.247147,67.533653,227.411667,1279.765230
3.257147,67.486723,228.073583,1282.042657
3.267147,67.439474,228.734918,1284.326700
3.277147,67.392040,229.395662,1286.617353
3.287147,67.344265,230.055810,1288.914611
3.297147,67.296024,230.715357,1291.218467
3.307147,67.247250,231.374298,1293.528916
3.317147,67.198156,232.032631,1295.845951
3.327147,67.148769,232.690355,1298.169567
3.337147,67.099091,233.347476,1300.499756
3.347147,67.049040,234.003997,1302.836514
3.357147,67.002919,234.659942,1305.179834
3.367147,66.961708,235.315363,1307.529711
3.377147,66.920303,235.970305,1309.886140
3.387147,66.878397,236.624781,1312.249116
3.397147,66.835888,237.278792,1314.618634
3.407147,66.793227,237.932342,1316.994690
3.417147,66.750700,238.585450,1319.377280
3.427147,66.707745,239.238133,1321.766398
3.437147,66.664604,239.890403,1324.162041
3.447147,66.621108,240.542269,1326.564204
3.457147,66.577265,241.193739,1328.972885
3.467147,66.533330,241.844824,1331.388078
3.477147,66.489000,242.495532,1333.809780
3.487147,66.444500,243.145870,1336.237987
3.497147,66.399450,243.795842,1338.672696
3.507147,66.354146,244.445448,1341.113903
3.517147,66.308683,245.094691,1343.561604
3.527147,66.263165,245.743570,1346.015796
3.537147,66.217428,246.392086,1348.476474
3.547147,66.171816,247.040234,1350.943636
3.557147,66.126024,247.688011,1353.417278
3.567147,66.080231,248.335410,1355.897395
3.577147,66.034489,248.982423,1358.383985
3.587147,65.988702,249.629043,1360.877042
3.597147,65.942748,250.275257,1363.376564
3.607147,65.896649,250.921054,1365.882546
3.617147,65.850498,251.566420,1368.394984
3.627147,65.804376,252.211341,1370.913873
3.637147,65.758367,252.855806,1373.439209
3.647147,65.712339,253.499803,1375.970987
3.657147,65.666375,254.143318,1378.509203
3.667147,65.620441,254.786340,1381.053852
3.677147,65.574586,255.428856,1383.604929
3.687147,65.528677,256.070857,1386.162428
3.697147,65.482895,256.712332,1388.726344
3.707147,65.436552,257.353271,1391.296672
3.717147,65.390191,257.993664,1393.873408
3.727147,65.343819,258.633504,1396.456544
3.737147,65.297412,259.272788,1399.046076
3.747147,65.250886,259.911514,1401.641998
3.757147,65.204224,260.549681,1404.244304
3.767147,65.157434,261.187289,1406.852989
3.777147,65.110561,261.824340,1409.468048
3.787147,65.063384,262.460839,1412.089474
3.797147,65.016039,263.096790,1414.717263
3.807147,64.968279,263.732200,1417.351408
3.817147,64.920074,264.367075,1419.991905
3.827147,64.871576,265.001421,1422.638748
3.837147,64.822859,265.635249,1425.291932
3.847147,64.773752,266.268568,1427.951451
3.857147,64.724488,266.901388,1430.617302
3.867147,64.664497,267.533675,1433.289477
3.877147,64.582959,268.165292,1435.967973
3.887147,64.500855,268.796119,1438.652781
3.897147,64.417865,269.426133,1441.343893
3.907147,64.334399,270.055367,1444.041301
3.917147,64.250559,270.683843,1446.744997
3.927147,64.166165,271.311554,1449.454975
3.937147,64.081458,271.938485,1452.171226
3.947147,63.996313,272.564634,1454.893742
3.957147,63.910817,273.190003,1457.622516
3.967147,63.824992,273.814592,1460.357540
3.977147,63.738705,274.438392,1463.098805
3.987147,63.651873,275.061391,1465.846305
3.997147,63.564780,275.683577,1468.600030
4.007147,63.477434,276.304942,1471.359974
4.017147,63.389845,276.925475,1474.126126
4.027147,63.302050,277.545165,1476.898480
4.037147,63.213931,278.163998,1479.677027
4.047147,63.125635,278.781961,1482.461757
4.057147,63.037116,279.399041,1485.252663
4.067147,62.948045,280.015224,1488.049735
4.077147,62.858650,280.630496,1490.852964
4.087147,62.769039,281.244844,1493.662342
4.097147,62.679139,281.858257,1496.477858
4.107147,62.589030,282.470725,1499.299504
4.117147,62.498597,283.082240,1502.127270
4.127147,62.407916,283.692794,1504.961146
4.137147,62.316876,284.302380,1507.801122
4.147147,62.225338,284.910993,1510.647190
4.157147,62.133289,285.518627,1513.499339
4.167147,62.040813,286.125280,1516.357559
4.177147,61.947903,286.730950,1519.221841
4.187147,61.854626,287.335639,1522.092175
4.197147,61.760896,287.939348,1524.968551
4.207147,61.666718,288.542080,1527.850959
4.217147,61.572044,289.143838,1530.739389
4.227147,61.476934,289.744628,1533.633832
4.237147,61.381005,290.344452,1536.534278
4.247147,61.284595,290.943313,1539.440718
4.257147,61.187672,291.541216,1542.353141
4.267147,61.090291,292.138165,1545.271539
4.277147,60.992419,292.734165,1548.195902
4.287147,60.894163,293.329218,1551.126219
4.297147,60.795449,293.923328,1554.062483
4.307147,60.696053,294.516494,1557.004683
4.317147,60.596252,295.108716,1559.952810
4.327147,60.496092,295.699991,1562.906854
4.337147,60.395573,296.290318,1565.866806
4.347147,60.294771,296.879692,1568.832657
4.357147,60.193536,297.468100,1571.804397
4.367147,60.092118,298.055522,1574.782016
4.377147,59.990064,298.641945,1577.765504
4.387147,59.887728,299.227365,1580.754851
4.397147,59.785146,299.811776,1583.750048
4.407147,59.690354,300.395207,1586.751084
4.417147,59.602733,300.977722,1589.757949
4.427147,59.514911,301.559368,1592.770635
4.437147,59.426912,302.140145,1595.789133
4.447147,59.318342,302.719947,1598.813435
4.448649,59.300897,302.806971,1599.268372
4.450152,59.283466,302.893969,1599.723440
4.451654,59.266033,302.980941,1600.178640
4.453157,59.248572,303.067886,1600.633969
4.454660,59.231126,303.154805,1601.089430
4.457665,59.196222,303.328565,1602.000742
4.460670,59.150693,303.502202,1602.912576
4.463675,59.103927,303.675703,1603.824932
4.466681,59.057136,303.849064,1604.737809
4.471564,58.981053,304.130461,1606.222291
4.476447,58.904902,304.411482,1607.708146
4.481331,58.828664,304.692131,1609.195373
4.486214,58.752384,304.972412,1610.683969
4.491097,58.676030,305.252321,1612.173932
4.497847,58.570348,305.638626,1614.235750
4.504598,58.464550,306.024216,1616.300173
4.511348,58.358586,306.409091,1618.367196
4.518098,58.235686,306.793197,1620.436815
4.524848,58.096111,307.176433,1622.509023
4.534335,57.899614,307.713431,1625.425561
4.543821,57.702749,308.248533,1628.347184
4.553307,57.505529,308.781777,1631.273875
4.562794,57.307946,309.313195,1634.205615
4.572280,57.109976,309.842774,1637.142388
4.581766,56.893206,310.370416,1640.084175
4.591766,56.664099,310.924428,1643.190651
4.601766,56.434630,311.476156,1646.302656
4.611766,56.204784,312.025623,1649.420167
4.621766,55.974605,312.572849,1652.543161
4.631766,55.744063,313.117824,1655.671616
4.641766,55.513237,313.660536,1658.805510
4.651766,55.282114,314.200981,1661.944819
