# Time (s), acceleration Magnitude (m/s²), Vz (m/s), Z (m)
0.000000,71.175973,0.000000,697.000000
0.005754,71.184396,0.409554,697.002357
0.011509,71.192784,0.819156,697.007070
0.021509,71.207276,1.531036,697.018821
0.031509,71.221608,2.243059,697.037692
0.041509,71.235832,2.955226,697.063683
0.051509,71.249937,3.667534,697.096797
0.061509,71.263834,4.379982,697.137035
0.071509,71.277603,5.092568,697.184397
0.081509,71.291192,5.805291,697.238887
0.091509,71.304656,6.518149,697.300504
0.101509,71.318056,7.231142,697.369250
0.111509,71.331271,7.944268,697.445127
0.121509,71.344350,8.657525,697.528136
0.131509,71.357300,9.370912,697.618279
0.141509,71.370073,10.084428,697.715555
0.151509,71.382770,10.798071,697.819968
0.161509,71.395315,11.511840,697.931517
0.171509,71.407700,12.225734,698.050205
0.181509,71.419975,12.939751,698.176033
0.191509,71.432032,13.653890,698.309001
0.201509,71.443969,14.368149,698.449111
0.211509,71.455801,15.082527,698.596364
0.221509,71.467526,15.797022,698.750762
0.231509,71.479144,16.511634,698.912305
0.241509,71.490670,17.226362,699.080995
0.251509,71.501916,17.941204,699.256833
0.261509,71.513022,18.656158,699.439820
0.271509,71.524022,19.371222,699.629957
0.281509,71.534915,20.086395,699.827245
0.291509,71.545713,20.801677,700.031685
0.301509,71.556407,21.517066,700.243279
0.311509,71.566809,22.232561,700.462027
0.321509,71.577073,22.948159,700.687930
0.331509,71.587231,23.663859,700.920991
0.341509,71.597287,24.379660,701.161208
0.351509,71.607237,25.095561,701.408584
0.361509,71.617079,25.811561,701.663120
0.371509,71.626622,26.527659,701.924816
0.381509,71.636029,27.243851,702.193673
0.391509,71.645329,27.960136,702.469693
0.401509,71.654519,28.676514,702.752876
0.411509,71.663600,29.392983,703.043224
0.421509,71.672572,30.109542,703.340736
0.431509,71.681233,30.826190,703.645415
0.441509,71.689759,31.542923,703.957260
0.451509,71.698174,32.259741,704.276274
0.461509,71.706477,32.976643,704.602456
0.471509,71.714666,33.693627,704.935807
0.481509,71.722736,34.410693,705.276328
0.491509,71.730489,35.127837,705.624021
0.501509,71.738108,35.845059,705.978885
0.511509,71.745612,36.562356,706.340922
0.521509,71.752997,37.279727,706.710133
0.531509,71.760259,37.997172,707.086517
0.541509,71.767403,38.714688,707.470077
0.551509,71.774218,39.432275,707.860811
0.561509,71.781151,40.149930,708.258722
0.571509,71.788270,40.867655,708.663810
0.581509,71.795290,41.585451,709.076076
0.591509,71.802214,42.303317,709.495520
0.601509,71.809041,43.021252,709.922142
0.611509,71.815515,43.739253,710.355945
0.621509,71.821873,44.457318,710.796928
0.623842,71.823342,44.624852,710.900842
0.625034,71.832286,44.710509,710.954161
0.626227,71.832963,44.796166,711.007581
0.628612,71.834537,44.967484,711.114627
0.630997,71.836164,45.138806,711.222082
0.633382,71.837483,45.310131,711.329945
0.643382,71.843771,46.028495,711.786638
0.653382,71.850127,46.746920,712.250515
0.663382,71.856465,47.465407,712.721577
0.673382,71.862667,48.183953,713.199824
0.683382,71.868910,48.902557,713.685256
0.693382,71.874506,49.621215,714.177875
0.703382,71.880364,50.339922,714.677681
0.713382,71.886157,51.058677,715.184674
0.723382,71.891742,51.777478,715.698854
0.732910,71.897199,52.462375,716.195443
0.742438,71.902385,53.147307,716.698557
0.751965,71.907803,53.832270,717.208197
0.761493,71.913094,54.517261,717.724363
0.771493,71.918481,55.236225,718.273131
0.781493,71.923916,55.955208,718.829088
0.791493,71.928991,56.674204,719.392235
0.801493,71.934293,57.393203,719.962572
0.811493,71.939493,58.112200,720.540099
0.821493,71.944839,58.831187,721.124816
0.831493,71.950210,59.550156,721.716723
0.841493,71.955531,60.269095,722.315819
0.851493,71.960878,60.987995,722.922104
0.861493,71.966022,61.706843,723.535579
0.871493,71.971100,62.425624,724.156241
0.881493,71.976186,63.144324,724.784091
0.891493,71.981481,63.862930,725.419127
0.901493,71.986855,64.581427,726.061349
0.911493,71.992333,65.299798,726.710755
0.921493,71.997841,66.018028,727.367345
0.931493,72.003564,66.736098,728.031115
0.941493,72.008938,67.453988,728.702066
0.951493,72.014371,68.171675,729.380194
0.961493,72.019940,68.889138,730.065499
0.971493,72.025685,69.606356,730.757976
0.981493,72.031702,70.323309,731.457625
0.991493,72.037661,71.039973,732.164442
1.001493,72.043761,71.756324,732.878423
1.011493,72.050153,72.472337,733.599567
1.021493,72.056393,73.187989,734.327869
1.031493,72.062564,73.903252,735.063325
1.041493,72.069020,74.618101,735.805932
1.051493,72.075509,75.332510,736.555686
1.061493,72.082289,76.046454,737.312581
1.071493,72.089043,76.759909,738.076613
1.081493,72.096042,77.472848,738.847778
1.091493,72.103141,78.185250,739.626069
1.101493,72.110103,78.897088,740.411481
1.111493,72.117147,79.608338,741.204008
1.121493,72.124233,80.318978,742.003645
1.131493,72.131350,81.028985,742.810386
1.141493,72.138593,81.738341,743.624223
1.151493,72.145825,82.447028,744.445150
1.161493,72.153192,83.155028,745.273161
1.171493,72.160465,83.862326,746.108249
1.181493,72.167665,84.568910,746.950405
1.191493,72.174664,85.274767,747.799624
1.201493,72.181406,85.979887,748.655898
1.211493,72.188160,86.684263,749.519220
1.221493,72.194970,87.387892,750.389581
1.231493,72.201418,88.090773,751.266975
1.241493,72.207805,88.792909,752.151394
1.251493,72.213939,89.494303,753.042831
1.261493,72.219677,90.194963,753.941278
1.271493,72.224885,90.894898,754.846728
1.281493,72.229841,91.594121,755.759173
1.291493,72.234370,92.292647,756.678608
1.301493,72.238633,92.990499,757.605024
1.311493,72.242285,93.687697,758.538416
1.321493,72.245651,94.384271,759.478776
1.331493,72.248418,95.080247,760.426099
1.341493,72.250710,95.775660,761.380379
1.351493,72.252395,96.470543,762.341610
1.361493,72.253571,97.164936,763.309788
1.371493,72.253891,97.858879,764.284908
1.381493,72.253497,98.552413,765.266964
1.391493,72.251976,99.245582,766.255955
1.401493,72.249883,99.938434,767.251875
1.411493,72.246858,100.631017,768.254722
1.421493,72.243296,101.323382,769.264495
1.431493,72.238847,102.015580,770.281190
1.441493,72.233592,102.707664,771.304806
1.451493,72.227553,103.399686,772.335343
1.461493,72.220651,104.091698,773.372800
1.471493,72.213052,104.783754,774.417177
1.481493,72.204562,105.475904,775.468475
1.491493,72.195073,106.168199,776.526695
1.501493,72.184533,106.860687,777.591840
1.511493,72.173103,107.553414,778.663910
1.521493,72.161079,108.246427,779.742909
1.531493,72.148236,108.939771,780.828839
1.541493,72.134736,109.633488,781.921705
1.551493,72.120361,110.327617,783.021511
1.561493,72.105564,111.022195,784.128259
1.571493,72.089994,111.717254,785.241956
1.581493,72.073997,112.412826,786.362606
1.591493,72.057341,113.108935,787.490214
1.601493,72.040285,113.805605,788.624787
1.611493,72.022254,114.502853,789.766328
1.621493,72.003965,115.200691,790.914846
1.631493,71.985283,115.899131,792.070344
1.641493,71.966385,116.598181,793.232830
1.651493,71.947241,117.297844,794.402310
1.661493,71.927849,117.998120,795.578789
1.671493,71.908486,118.699006,796.762274
1.681493,71.889175,119.400493,797.952771
1.691493,71.869632,120.102573,799.150286
1.701493,71.850203,120.805231,800.354825
1.711493,71.830865,121.508449,801.566393
1.721493,71.811371,122.212207,802.784996
1.731493,71.791941,122.916480,804.010639
1.741493,71.772711,123.621244,805.243327
1.751493,71.753793,124.326472,806.483065
1.761493,71.734996,125.032137,807.729858
1.771493,71.716717,125.738210,808.983709
1.781493,71.698622,126.444658,810.244623
1.791493,71.680782,127.151451,811.512603
1.801493,71.663588,127.858556,812.787653
1.811493,71.646546,128.565941,814.069775
1.821493,71.629701,129.273571,815.358973
1.831493,71.613314,129.981412,816.655248
1.841493,71.596836,130.689427,817.958602
1.851493,71.580666,131.397582,819.269037
1.861493,71.565032,132.105841,820.586554
1.871493,71.549649,132.814173,821.911154
1.881493,71.534401,133.522542,823.242837
1.891493,71.519581,134.230914,824.581604
1.901493,71.505128,134.939255,825.927455
1.911493,71.490823,135.647531,827.280389
1.921493,71.476680,136.355710,828.640406
1.931493,71.463021,137.063758,830.007503
1.941493,71.449333,137.771642,831.381680
1.951493,71.435508,138.479326,832.762935
1.961493,71.421931,139.186774,834.151266
1.971493,71.408618,139.893951,835.546670
1.981493,71.395488,140.600824,836.949144
1.991493,71.382596,141.307358,838.358685
2.001493,71.369989,142.013517,839.775290
2.011493,71.357493,142.719267,841.198954
2.021493,71.345277,143.424571,842.629674
2.031493,71.333418,144.129395,844.067444
2.041493,71.321679,144.833703,845.512260
2.051493,71.310260,145.537460,846.964116
2.061493,71.298829,146.240632,848.423007
2.071493,71.287486,146.943183,849.888927
2.081493,71.276493,147.645080,851.361869
2.091493,71.265561,148.346294,852.841826
2.101493,71.255078,149.046796,854.328792
2.111493,71.244732,149.746562,855.822760
2.121493,71.234509,150.445570,857.323721
2.131493,71.224605,151.143800,858.831668
2.141493,71.214717,151.841238,860.346594
2.151493,71.204931,152.537873,861.868491
2.161493,71.195099,153.233698,863.397349
2.171493,71.184973,153.928713,864.933162
2.181493,71.174432,154.622917,866.475921
2.191493,71.163653,155.316318,868.025617
2.201493,71.152566,156.008930,869.582244
2.211493,71.141092,156.700775,871.145793
2.221493,71.129006,157.391877,872.716257
2.231493,71.116484,158.082268,874.293629
2.241493,71.103199,158.771986,875.877900
2.251493,71.089087,159.461070,877.469066
2.261493,71.074285,160.149567,879.067120
2.271493,71.058446,160.837529,880.672056
2.281493,71.041624,161.525008,882.283869
2.291493,71.023563,162.212062,883.902555
2.301493,71.004714,162.898751,885.528109
2.311493,70.984532,163.585135,887.160529
2.321493,70.963071,164.271277,888.799811
2.331493,70.939754,164.957236,890.445953
2.341493,70.915465,165.643069,892.098955
2.351493,70.889827,166.328837,893.758815
2.361493,70.863223,167.014598,895.425532
2.371493,70.835472,167.700408,897.099107
2.381493,70.806685,168.386320,898.779540
2.391493,70.776922,169.072382,900.466834
2.401493,70.746276,169.758643,902.160989
2.411493,70.714792,170.445140,903.862007
2.421493,70.682714,171.131906,905.569892
2.431493,70.650200,171.818968,907.284646
2.441493,70.617357,172.506344,909.006273
2.451493,70.584305,173.194050,910.734774
2.461493,70.551152,173.882092,912.470155
2.471493,70.517969,174.570473,914.212417
2.481493,70.484348,175.259186,915.961565
2.491493,70.450720,175.948216,917.717602
2.501493,70.417536,176.637548,919.480531
2.511493,70.384548,177.327163,921.250354
2.521493,70.351876,178.017035,923.027075
2.531493,70.319602,178.707137,924.810695
2.541493,70.287928,179.397435,926.601218
2.551493,70.256615,180.087894,928.398645
2.561493,70.225539,180.778477,930.202976
2.571493,70.194872,181.469140,932.014214
2.581493,70.164661,182.159842,933.832359
2.591493,70.134825,182.850537,935.657411
2.601493,70.105230,183.541181,937.489370
2.611493,70.075085,184.231723,939.328235
2.621493,70.045432,184.922111,941.174004
2.631493,70.015534,185.612295,943.026676
2.641493,69.985679,186.302223,944.886249
2.651493,69.955855,186.991847,946.752720
2.661493,69.926253,187.681115,948.626085
2.671493,69.896864,188.369979,950.506341
2.681493,69.867739,189.058392,952.393483
2.691493,69.838849,189.746306,954.287507
2.701493,69.810070,190.433676,956.188407
2.711493,69.781537,191.120453,958.096178
2.721493,69.753347,191.806595,960.010814
2.731493,69.725454,192.492061,961.932308
2.741493,69.697957,193.176813,963.860653
2.751493,69.670670,193.860813,965.795842
2.761493,69.643730,194.544030,967.737867
2.771493,69.617209,195.226434,969.686720
2.781493,69.590737,195.908003,971.642392
2.791493,69.564105,196.588714,973.604877
2.801493,69.537656,197.268553,975.574164
2.811493,69.511179,197.947513,977.550245
2.821493,69.484946,198.625600,979.533111
2.831493,69.458499,199.302829,981.522754
2.841493,69.431855,199.979217,983.519165
2.851493,69.404693,200.654783,985.522336
2.861493,69.376990,201.329551,987.532258
2.871493,69.348616,202.003554,989.548924
2.881493,69.319517,202.676830,991.572327
2.891493,69.289514,203.349424,993.602458
2.901493,69.258300,204.021383,995.639313
2.911493,69.226089,204.692745,997.682884
2.921493,69.193106,205.363546,999.733166
2.931493,69.158904,206.033826,1001.790153
2.941493,69.123404,206.703640,1003.853841
2.951493,69.086732,207.373051,1005.924225
2.961493,69.048512,208.042115,1008.001301
2.971493,69.009283,208.710887,1010.085066
2.981493,68.968733,209.379421,1012.175518
2.991493,68.927142,210.047772,1014.272654
3.001493,68.884562,210.715990,1016.376473
3.011493,68.840839,211.384117,1018.486973
3.021493,68.796366,212.052192,1020.604155
3.031493,68.751335,212.720249,1022.728017
3.041493,68.705170,213.388317,1024.858560
3.051493,68.658756,214.056414,1026.995784
3.061493,68.611949,214.724554,1029.139688
3.071493,68.564949,215.392748,1031.290275
3.081493,68.518048,216.060996,1033.447543
3.091493,68.471146,216.729297,1035.611495
3.101493,68.424532,217.397639,1037.782130
3.111493,68.378015,218.066006,1039.959448
3.121493,68.331623,218.734376,1042.143450
3.131493,68.285654,219.402722,1044.334135
3.141493,68.239345,220.071007,1046.531504
3.151493,68.193249,220.739189,1048.735555
3.161493,68.146847,221.407220,1050.946287
3.171493,68.100474,222.075053,1053.163699
3.181493,68.054348,222.742642,1055.387787
3.191493,68.008568,223.409941,1057.618551
3.201493,67.962933,224.076903,1059.855985
3.211493,67.917414,224.743475,1062.100087
3.221493,67.872073,225.409608,1064.350853
3.231493,67.827090,226.075250,1066.608278
3.241493,67.782260,226.740354,1068.872356
3.251493,67.737694,227.404872,1071.143083
3.261493,67.693254,228.068757,1073.420452
3.271493,67.649024,228.731964,1075.704456
3.281493,67.605220,229.394452,1077.995089
3.291493,67.561112,230.056185,1080.292342
3.301493,67.517422,230.717127,1082.596210
3.311493,67.473763,231.377251,1084.906682
3.321493,67.430211,232.036534,1087.223752
3.331493,67.386874,232.694960,1089.547410
3.341493,67.343525,233.352521,1091.877648
3.351493,67.300167,234.009213,1094.214458
3.361493,67.256484,234.665041,1096.557830
3.371493,67.212258,235.320013,1098.907756
3.381493,67.167578,235.974145,1101.264227
3.391493,67.122113,236.627461,1103.627236
3.401493,67.075680,237.279989,1105.996774
3.411493,67.031039,237.931774,1108.372833
3.421493,66.992331,238.582898,1110.755407
3.431493,66.952523,239.233446,1113.144489
3.441493,66.911961,239.883477,1115.540074
3.451493,66.870570,240.533035,1117.942157
3.461493,66.828015,241.182169,1120.350733
3.471493,66.784997,241.830934,1122.765799
3.481493,66.740977,242.479386,1125.187351
3.491493,66.695917,243.127573,1127.615386
3.501493,66.649586,243.775532,1130.049902
3.511493,66.602664,244.423300,1132.490896
3.521493,66.555162,245.070911,1134.938367
3.531493,66.507257,245.718394,1137.392314
3.541493,66.459008,246.365773,1139.852735
3.551493,66.410677,247.013063,1142.319629
3.561493,66.362241,247.660273,1144.792996
3.571493,66.313944,248.307404,1147.272834
3.581493,66.265823,248.954452,1149.759144
3.591493,66.218053,249.601409,1152.251923
3.601493,66.170103,250.248257,1154.751171
3.611493,66.122364,250.894969,1157.256888
3.621493,66.075074,251.541517,1159.769070
3.631493,66.028212,252.187872,1162.287717
3.641493,65.981621,252.833996,1164.812827
3.651493,65.935433,253.479852,1167.344396
3.661493,65.889657,254.125397,1169.882423
3.671493,65.844206,254.770588,1172.426903
3.681493,65.799056,255.415380,1174.977833
3.691493,65.754331,256.059729,1177.535209
3.701493,65.709786,256.703590,1180.099026
3.711493,65.665288,257.346918,1182.669279
3.721493,65.621232,257.989669,1185.245963
3.731493,65.577548,258.631806,1187.829071
3.741493,65.534301,259.273295,1190.418597
3.751493,65.491324,259.914106,1193.014534
3.761493,65.448789,260.554212,1195.616876
3.771493,65.406560,261.193595,1198.225616
3.781493,65.364520,261.832239,1200.840746
3.791493,65.322644,262.470138,1203.462258
3.801493,65.281069,263.107283,1206.090146
3.811493,65.239183,263.743668,1208.724402
3.821493,65.197236,264.379293,1211.365017
3.831493,65.154912,265.014174,1214.011985
3.841493,65.112202,265.648338,1216.665298
3.851493,65.068823,266.281817,1219.324949
3.861493,65.024854,266.914646,1221.990932
3.871493,64.979932,267.546863,1224.663240
3.881493,64.934203,268.178512,1227.341868
3.891493,64.887230,268.809638,1230.026809
3.901493,64.839068,269.440287,1232.718059
3.911493,64.789919,270.070502,1235.415613
3.921493,64.739728,270.700330,1238.119468
3.931493,64.688796,271.329812,1240.829618
3.941493,64.635539,271.958984,1243.546063
3.951493,64.552572,272.587747,1246.268797
3.961493,64.468759,273.215977,1248.997816
3.971493,64.384414,273.843645,1251.733115
3.981493,64.299121,274.470790,1254.474687
3.991493,64.213265,275.097429,1257.222529
4.001493,64.127201,275.723537,1259.976634
4.011493,64.040979,276.349079,1262.736997
4.021493,63.954654,276.974043,1265.503614
4.031493,63.868300,277.598426,1268.276476
4.041493,63.781938,278.222212,1271.055580
4.051493,63.695644,278.845371,1273.840918
4.061493,63.609294,279.467870,1276.632485
4.071493,63.522784,280.089675,1279.430274
4.081493,63.436443,280.710754,1282.234276
4.091493,63.350155,281.331072,1285.044486
4.101493,63.263948,281.950592,1287.860895
4.111493,63.177852,282.569277,1290.683495
4.121493,63.091780,283.187095,1293.512278
4.131493,63.005743,283.804010,1296.347234
4.141493,62.919754,284.419994,1299.188355
4.151493,62.833417,285.035015,1302.035631
4.161493,62.747005,285.649049,1304.889052
4.171493,62.660558,286.262074,1307.748608
4.181493,62.573982,286.874076,1310.614290
4.191493,62.487194,287.485043,1313.486086
4.201493,62.399189,288.094980,1316.363987
4.211493,62.310342,288.703905,1319.247983
4.221493,62.220986,289.311838,1322.138062
4.231493,62.131012,289.918785,1325.034216
4.241493,62.040277,290.524750,1327.936435
4.251493,61.948952,291.129739,1330.844708
4.261493,61.856970,291.733767,1333.759026
4.271493,61.764315,292.336851,1336.679380
4.281493,61.671009,292.939004,1339.605760
4.291493,61.577018,293.540242,1342.538157
4.301493,61.482256,294.140577,1345.476562
4.311493,61.386704,294.740023,1348.420966
4.321493,61.290520,295.338593,1351.371359
4.331493,61.193863,295.936296,1354.327735
4.341493,61.096650,296.533142,1357.290083
4.351493,60.999042,297.129138,1360.258395
4.361493,60.900994,297.724288,1363.232662
4.371493,60.802467,298.318594,1366.212878
4.381493,60.703492,298.912053,1369.199032
4.391493,60.604228,299.504660,1372.191116
4.401493,60.504723,300.096408,1375.189122
4.411493,60.405047,300.687290,1378.193041
4.421493,60.305174,301.277293,1381.202865
4.431493,60.205119,301.866405,1384.218584
4.439762,60.122254,302.352845,1386.716671
4.448031,60.016374,302.838574,1389.218778
4.449318,59.999869,302.914084,1389.608501
4.450604,59.983350,302.989573,1389.998320
4.451891,59.966827,303.065043,1390.388237
4.453178,59.950322,303.140493,1390.778251
4.454465,59.933806,303.215922,1391.168362
4.457038,59.900787,303.366720,1391.948875
4.459612,59.867765,303.517437,1392.729776
4.462185,59.834730,303.668073,1393.511065
4.464758,59.801718,303.818627,1394.292741
4.469393,59.742246,304.089561,1395.701487
4.474028,59.682762,304.360227,1397.111488
4.478663,59.623311,304.630624,1398.522742
4.483297,59.563835,304.900749,1399.935249
4.487932,59.504366,305.170602,1401.349008
4.494864,59.415441,305.573699,1403.465855
4.501796,59.331032,305.976191,1405.585494
4.508728,59.252558,306.378106,1407.707921
4.515660,59.174110,306.779463,1409.833132
4.522592,59.095711,307.180263,1411.961124
4.532032,58.988949,307.725179,1414.863552
4.541473,58.882220,308.269037,1417.771121
4.550913,58.775423,308.811830,1420.683818
4.560353,58.656353,309.353507,1423.601634
4.569793,58.513310,309.893911,1426.524558
4.579234,58.370031,310.432904,1429.452576
4.589234,58.217970,311.002285,1432.559754
4.599234,58.065558,311.570092,1435.672617
4.609234,57.910872,312.136359,1438.791150
4.619234,57.737548,312.701029,1441.915338
4.629234,57.530684,313.263882,1445.045164
4.639234,57.322501,313.824732,1448.180609
4.649234,57.110686,314.383582,1451.321653
4.659234,56.898498,314.940521,1454.468275
