# Time (s), acceleration Magnitude (m/s²), Vz (m/s), Z (m)
0.000000,71.178056,0.000000,697.000000
0.005755,71.186483,0.409526,697.002357
0.011510,71.194874,0.819101,697.007070
0.021510,71.209369,1.530885,697.018820
0.031510,71.223732,2.242814,697.037689
0.041510,71.237996,2.954885,697.063677
0.051510,71.252132,3.667098,697.096787
0.061510,71.266069,4.379452,697.137020
0.071510,71.279881,5.091945,697.184377
0.081510,71.293518,5.804574,697.238860
0.091510,71.306955,6.517339,697.300469
0.101510,71.320374,7.230238,697.369207
0.111510,71.333622,7.943271,697.445075
0.121510,71.346736,8.656435,697.528073
0.131510,71.359725,9.369730,697.618204
0.141510,71.372513,10.083153,697.715468
0.151510,71.385245,10.796704,697.819868
0.161510,71.397833,11.510382,697.931403
0.171510,71.410265,12.224185,698.050076
0.181510,71.422591,12.938111,698.175887
0.191510,71.434685,13.652160,698.308839
0.201510,71.446679,14.366329,698.448931
0.211510,71.458573,15.080617,698.596166
0.221510,71.470366,15.795024,698.750544
0.231510,71.482057,16.509548,698.912067
0.241510,71.493650,17.224188,699.080735
0.251510,71.504980,17.938944,699.256551
0.261510,71.516175,18.653811,699.439515
0.271510,71.527271,19.368791,699.629628
0.281510,71.538268,20.083880,699.826891
0.291510,71.549170,20.799079,700.031306
0.301510,71.559983,21.514387,700.242873
0.311510,71.570511,22.229801,700.461594
0.321510,71.580911,22.945320,700.687469
0.331510,71.591214,23.660942,700.920501
0.341510,71.601421,24.376667,701.160689
0.351510,71.611534,25.092493,701.408035
0.361510,71.621551,25.808420,701.662539
0.371510,71.631280,26.524446,701.924203
0.381510,71.640885,27.240569,702.193028
0.391510,71.650394,27.956786,702.469015
0.401510,71.659806,28.673099,702.752164
0.411510,71.669123,29.389505,703.042477
0.421510,71.678343,30.106004,703.339955
0.431510,71.687269,30.822593,703.644598
0.441510,71.696075,31.539271,703.956407
0.451510,71.704784,32.256037,704.275383
0.461510,71.713396,32.972889,704.601528
0.471510,71.721913,33.689827,704.934842
0.481510,71.730333,34.406849,705.275325
0.491510,71.738448,35.123955,705.622979
0.501510,71.746449,35.841140,705.977804
0.511510,71.754354,36.558405,706.339802
0.521510,71.762162,37.275749,706.708973
0.531510,71.769873,37.993170,707.085317
0.541510,71.777481,38.710668,707.468836
0.551510,71.784782,39.428240,707.859531
0.561510,71.791975,40.145885,708.257402
0.571510,71.799070,40.863601,708.662449
0.581510,71.806066,41.581388,709.074674
0.591510,71.812958,42.299244,709.494077
0.601510,71.819753,43.017168,709.920659
0.611510,71.826194,43.735159,710.354421
0.621510,71.832529,44.453213,710.795363
0.623827,71.833983,44.619622,710.898570
0.625053,71.841505,44.707638,710.953367
0.626278,71.842244,44.795655,711.008272
0.628730,71.843742,44.971691,711.118297
0.631181,71.845262,45.147731,711.228753
0.633632,71.846888,45.323774,711.339641
0.643632,71.852951,46.041966,711.796470
0.653632,71.859004,46.760217,712.260480
0.663632,71.864879,47.478529,712.731674
0.673632,71.870799,48.196898,713.210051
0.683632,71.876502,48.915326,713.695612
0.693632,71.881769,49.633808,714.188358
0.703632,71.887054,50.352342,714.688289
0.713632,71.892273,51.070928,715.195405
0.723632,71.897397,51.789566,715.709707
0.728418,71.899659,52.133469,715.958357
0.733203,71.902065,52.477384,716.208652
0.737988,71.904450,52.821310,716.460592
0.742773,71.906702,53.165248,716.714179
0.752773,71.911427,53.884025,717.249425
0.762773,71.916087,54.602848,717.791860
0.772773,71.920549,55.321715,718.341482
0.782773,71.924556,56.040623,718.898294
0.792773,71.928663,56.759570,719.462295
0.802773,71.932706,57.478555,720.033485
0.812773,71.936600,58.197578,720.611866
0.822773,71.940342,58.916635,721.197437
0.832773,71.944008,59.635727,721.790199
0.842773,71.947611,60.354851,722.390152
0.852773,71.950955,61.074005,722.997296
0.862773,71.954034,61.793187,723.611632
0.872773,71.957125,62.512393,724.233160
0.882773,71.959951,63.231622,724.861880
0.892773,71.962826,63.950872,725.497792
0.902773,71.965446,64.670141,726.140897
0.912773,71.968144,65.389427,726.791195
0.922773,71.970575,66.108728,727.448686
0.932773,71.973015,66.828042,728.113370
0.942773,71.974894,67.547364,728.785247
0.952773,71.976992,68.266693,729.464317
0.962773,71.978948,68.986025,730.150581
0.972773,71.980635,69.705358,730.844038
0.982773,71.982207,70.424689,731.544688
0.992773,71.983777,71.144015,732.252531
1.002773,71.985347,71.863334,732.967568
1.012773,71.986859,72.582645,733.689798
1.022773,71.987711,73.301942,734.419221
1.032773,71.988635,74.021220,735.155837
1.042773,71.989504,74.740476,735.899645
1.052773,71.990178,75.459708,736.650646
1.062773,71.990817,76.178913,737.408839
1.072773,71.991428,76.898088,738.174224
1.082773,71.991788,77.617230,738.946801
1.092773,71.992113,78.336334,739.726569
1.102773,71.992229,79.055398,740.513528
1.112773,71.992106,79.774417,741.307677
1.122773,71.991828,80.493387,742.109016
1.132773,71.991491,81.212304,742.917544
1.142773,71.990926,81.931165,743.733262
1.152773,71.990550,82.649967,744.556167
1.162773,71.989792,83.368707,745.386261
1.172773,71.989073,84.087382,746.223541
1.182773,71.988076,84.805988,747.068008
1.192773,71.986986,85.524522,747.919661
1.202773,71.985551,86.242980,748.778498
1.212773,71.984110,86.961359,749.644520
1.222773,71.982423,87.679656,750.517725
1.232773,71.980826,88.397869,751.398113
1.242773,71.978985,89.115997,752.285682
1.252773,71.977173,89.834038,753.180433
1.262773,71.974891,90.551989,754.082363
1.272773,71.972362,91.269847,754.991472
1.282773,71.969854,91.987611,755.907760
1.292773,71.966977,92.705279,756.831224
1.302773,71.964053,93.422850,757.761865
1.312773,71.960982,94.140324,758.699681
1.322773,71.957808,94.857701,759.644671
1.332773,71.954584,95.574983,760.596834
1.342773,71.951083,96.292169,761.556170
1.352773,71.947290,97.009259,762.522678
1.362773,71.943614,97.726255,763.496355
1.372773,71.939624,98.443159,764.477202
1.382773,71.935176,99.159971,765.465218
1.392773,71.930482,99.876690,766.460401
1.402773,71.925721,100.593319,767.462752
1.412773,71.920594,101.309859,768.472268
1.422773,71.915494,102.026313,769.488948
1.432773,71.910198,102.742686,770.512793
1.442773,71.904592,103.458980,771.543802
1.452773,71.898898,104.175197,772.581973
1.462773,71.892968,104.891341,773.627306
1.472773,71.886832,105.607416,774.679799
1.482773,71.880683,106.323425,775.739454
1.492773,71.873839,107.039370,776.806268
1.502773,71.866789,107.755252,777.880241
1.512773,71.859416,108.471075,778.961373
1.522773,71.851917,109.186840,780.049662
1.532773,71.844265,109.902552,781.145109
1.542773,71.836424,110.618214,782.247713
1.552773,71.828324,111.333829,783.357473
1.562773,71.820129,112.049401,784.474389
1.572773,71.811676,112.764930,785.598461
1.582773,71.803189,113.480421,786.729688
1.592773,71.794407,114.195876,787.868069
1.602773,71.785277,114.911294,789.013605
1.612773,71.775718,115.626677,790.166295
1.622773,71.766056,116.342022,791.326139
1.632773,71.756101,117.057330,792.493136
1.642773,71.746030,117.772602,793.667285
1.652773,71.735914,118.487839,794.848587
1.662773,71.725464,119.203040,796.037042
1.672773,71.714977,119.918203,797.232648
1.682773,71.704361,120.633328,798.435406
1.692773,71.693590,121.348413,799.645315
1.702773,71.682692,122.063456,800.862374
1.712773,71.671679,122.778455,802.086584
1.722773,71.660158,123.493406,803.317943
1.732773,71.648413,124.208304,804.556451
1.742773,71.636569,124.923145,805.802109
1.752773,71.624669,125.637925,807.054914
1.762773,71.612578,126.352641,808.314867
1.772773,71.600507,127.067289,809.581967
1.782773,71.588229,127.781866,810.856213
1.792773,71.575847,128.496367,812.137604
1.802773,71.563505,129.210788,813.426140
1.812773,71.550928,129.925124,814.721819
1.822773,71.538339,130.639371,816.024642
1.832773,71.525398,131.353524,817.334606
1.842773,71.512085,132.067575,818.651712
1.852773,71.498883,132.781520,819.975958
1.862773,71.485474,133.495353,821.307342
1.872773,71.471841,134.209070,822.645864
1.882773,71.458196,134.922666,823.991523
1.892773,71.444484,135.636137,825.344317
1.902773,71.430849,136.349480,826.704245
1.912773,71.416803,137.062690,828.071306
1.922773,71.402802,137.775763,829.445499
1.932773,71.388684,138.488693,830.826821
1.942773,71.374384,139.201478,832.215272
1.952773,71.359557,139.914111,833.610850
1.962773,71.344710,140.626587,835.013554
1.972773,71.329605,141.338900,836.423381
1.982773,71.314417,142.051047,837.840331
1.992773,71.299241,142.763024,839.264402
2.002773,71.283692,143.474829,840.695591
2.012773,71.268240,144.186456,842.133898
2.022773,71.252617,144.897902,843.579320
2.032773,71.236835,145.609163,845.031855
2.042773,71.220927,146.320237,846.491502
2.052773,71.204949,147.031118,847.958259
2.062773,71.188314,147.741801,849.432124
2.072773,71.171699,148.452280,850.913095
2.082773,71.154890,149.162552,852.401169
2.092773,71.137928,149.872611,853.896345
2.102773,71.120772,150.582456,855.398620
2.112773,71.103657,151.292083,856.907993
2.122773,71.086297,152.001487,858.424461
2.132773,71.068775,152.710666,859.948022
2.142773,71.051194,153.419616,861.478674
2.152773,71.033579,154.128336,863.016414
2.162773,71.015609,154.836823,864.561240
2.172773,70.997414,155.545072,866.113149
2.182773,70.978645,156.253079,867.672140
2.192773,70.959840,156.960841,869.238210
2.202773,70.940703,157.668356,870.811356
2.212773,70.921824,158.375624,872.391577
2.222773,70.902524,159.082647,873.978868
2.232773,70.882921,159.789423,875.573229
2.242773,70.863192,160.495951,877.174656
2.252773,70.843399,161.202232,878.783147
2.262773,70.823491,161.908270,880.398700
2.272773,70.803150,162.614066,882.021311
2.282773,70.782585,163.319621,883.650980
2.292773,70.761922,164.024938,885.287703
2.302773,70.741113,164.730019,886.931478
2.312773,70.719929,165.434870,888.582303
2.322773,70.698426,166.139492,890.240175
2.332773,70.676160,166.843885,891.905092
2.342773,70.653548,167.548049,893.577052
2.352773,70.630851,168.251989,895.256052
2.362773,70.607710,168.955708,896.942091
2.372773,70.584399,169.659209,898.635165
2.382773,70.560856,170.362496,900.335274
2.392773,70.536943,171.065573,902.042415
2.402773,70.512863,171.768441,903.756585
2.412773,70.488474,172.471104,905.477783
2.422773,70.463943,173.173563,907.206006
2.432773,70.439132,173.875818,908.941253
2.442773,70.414105,174.577872,910.683522
2.452773,70.389001,175.279724,912.432810
2.462773,70.363597,175.981374,914.189116
2.472773,70.338070,176.682821,915.952437
2.482773,70.311746,177.384060,917.722771
2.492773,70.285264,178.085088,919.500117
2.502773,70.258672,178.785899,921.284473
2.512773,70.231829,179.486492,923.075835
2.522773,70.204928,180.186863,924.874202
2.532773,70.177922,180.887009,926.679571
2.542773,70.150718,181.586926,928.491941
2.552773,70.123487,182.286608,930.311309
2.562773,70.096058,182.986051,932.137672
2.572773,70.068318,183.685249,933.971029
2.582773,70.040546,184.384196,935.811377
2.592773,70.012629,185.082888,937.658712
2.602773,69.984604,185.781318,939.513033
2.612773,69.955890,186.479479,941.374338
2.622773,69.926685,187.177362,943.242622
2.632773,69.897134,187.874956,945.117884
2.642773,69.867030,188.572254,947.000120
2.652773,69.836811,189.269248,948.889328
2.662773,69.806388,189.965934,950.785504
2.672773,69.775826,190.662305,952.688646
2.682773,69.745056,191.358356,954.598749
2.692773,69.714104,192.054082,956.515812
2.702773,69.683094,192.749477,958.439830
2.712773,69.651758,193.444537,960.370800
2.722773,69.620302,194.139256,962.308719
2.732773,69.588624,194.833629,964.253584
2.742773,69.556837,195.527651,966.205391
2.752773,69.524885,196.221317,968.164136
2.762773,69.492767,196.914624,970.129816
2.772773,69.460364,197.607566,972.102427
2.782773,69.427705,198.300139,974.081966
2.792773,69.394495,198.992336,976.068429
2.802773,69.361069,199.684152,978.061811
2.812773,69.327401,200.375583,980.062110
2.822773,69.293591,201.066627,982.069322
2.832773,69.259616,201.757281,984.083442
2.842773,69.225485,202.447544,986.104466
2.852773,69.191108,203.137416,988.132391
2.862773,69.156474,203.826895,990.167213
2.872773,69.121579,204.515981,992.208928
2.882773,69.086438,205.204674,994.257531
2.892773,69.051137,205.892974,996.313020
2.902773,69.015463,206.580885,998.375390
2.912773,68.978782,207.268403,1000.444636
2.922773,68.941608,207.955526,1002.520756
2.932773,68.904194,208.642255,1004.603746
2.942773,68.866532,209.328592,1006.693600
2.952773,68.828520,210.014543,1008.790316
2.962773,68.789990,210.700109,1010.893890
2.972773,68.751300,211.385293,1013.004317
2.982773,68.712228,212.070095,1015.121594
2.992773,68.672906,212.754520,1017.245718
3.002773,68.633178,213.438571,1019.376683
3.012773,68.593050,214.122246,1021.514488
3.022773,68.552770,214.805549,1023.659127
3.032773,68.512035,215.488479,1025.810598
3.042773,68.470641,216.171035,1027.968895
3.052773,68.429005,216.853213,1030.134017
3.062773,68.386888,217.535012,1032.305958
3.072773,68.344700,218.216429,1034.484716
3.082773,68.302289,218.897463,1036.670286
3.092773,68.259678,219.578112,1038.862664
3.102773,68.216905,220.258373,1041.061847
3.112773,68.173785,220.938240,1043.267830
3.122773,68.130499,221.617709,1045.480610
3.132773,68.087035,222.296776,1047.700183
3.142773,68.043476,222.975434,1049.926544
3.152773,67.999705,223.653681,1052.159690
3.162773,67.955260,224.331507,1054.399617
3.172773,67.910280,225.008902,1056.646319
3.182773,67.865287,225.685859,1058.899793
3.192773,67.820082,226.362373,1061.160035
3.202773,67.774666,227.038437,1063.427039
3.212773,67.728876,227.714045,1065.700802
3.222773,67.682859,228.389189,1067.981318
3.232773,67.636667,229.063862,1070.268584
3.242773,67.590232,229.738060,1072.562594
3.252773,67.543575,230.411775,1074.863344
3.262773,67.496514,231.085001,1077.170828
3.272773,67.449265,231.757732,1079.485042
3.282773,67.401744,232.429961,1081.805981
3.292773,67.353609,233.101681,1084.133640
3.302773,67.305172,233.772885,1086.468013
3.312773,67.256293,234.443567,1088.809096
3.322773,67.207254,235.113721,1091.156882
3.332773,67.158041,235.783344,1093.511368
3.342773,67.108607,236.452433,1095.872548
3.352773,67.058971,237.120987,1098.240415
3.362773,67.008724,237.789001,1100.614965
3.372773,66.958256,238.456470,1102.996193
3.382773,66.907623,239.123396,1105.384093
3.392773,66.856321,239.789775,1107.778659
3.402773,66.804949,240.455607,1110.179887
3.412773,66.762618,241.120934,1112.587770
3.422773,66.720132,241.785805,1115.002304
3.432773,66.677394,242.450242,1117.423484
3.442773,66.634479,243.114236,1119.851307
3.452773,66.591380,243.777781,1122.285768
3.462773,66.548584,244.440885,1124.726861
3.472773,66.505697,245.103559,1127.174584
3.482773,66.462518,245.765809,1129.628931
3.492773,66.419060,246.427635,1132.089899
3.502773,66.375010,247.089036,1134.557482
3.512773,66.330834,247.750011,1137.031678
3.522773,66.286544,248.410564,1139.512481
3.532773,66.242022,249.070698,1141.999888
3.542773,66.197382,249.730413,1144.493894
3.552773,66.152666,250.389709,1146.994495
3.562773,66.107784,251.048586,1149.501687
3.572773,66.062812,251.707043,1152.015465
3.582773,66.017768,252.365079,1154.535826
3.592773,65.972597,253.022692,1157.062765
3.602773,65.926973,253.679878,1159.596278
3.612773,65.881321,254.336632,1162.136361
3.622773,65.835513,254.992950,1164.683010
3.632773,65.789626,255.648828,1167.236219
3.642773,65.743743,256.304262,1169.795985
3.652773,65.697749,256.959249,1172.362303
3.662773,65.651649,257.613784,1174.935168
3.672773,65.605536,258.267861,1177.514577
3.682773,65.559271,258.921477,1180.100524
3.692773,65.513080,259.574626,1182.693005
3.702773,65.466396,260.227304,1185.292015
3.712773,65.419500,260.879503,1187.897549
3.722773,65.372525,261.531217,1190.509603
3.732773,65.325473,262.182442,1193.128172
3.742773,65.278317,262.833175,1195.753250
3.752773,65.231166,263.483411,1198.384834
3.762773,65.183863,264.133147,1201.022917
3.772773,65.136670,264.782376,1203.667495
3.782773,65.089313,265.431093,1206.318563
3.792773,65.041952,266.079297,1208.976115
3.802773,64.994319,266.726987,1211.640147
3.812773,64.946298,267.374162,1214.310653
3.822773,64.898157,268.020818,1216.987629
3.832773,64.849874,268.666956,1219.671068
3.842773,64.801429,269.312580,1222.360966
3.852773,64.752855,269.957691,1225.057318
3.862773,64.704079,270.602291,1227.760118
3.872773,64.655137,271.246385,1230.469362
3.882773,64.605967,271.889976,1233.185044
3.892773,64.556390,272.533065,1235.907160
3.902773,64.506471,273.175656,1238.635704
3.912773,64.456353,273.817750,1241.370671
3.922773,64.396008,274.459308,1244.112057
3.932773,64.313797,275.100186,1246.859855
3.942773,64.231060,275.740256,1249.614058
3.952773,64.147979,276.379486,1252.374658
3.962773,64.064415,277.017910,1255.141645
3.972773,63.980498,277.655545,1257.915013
3.982773,63.895746,278.292377,1260.694753
3.992773,63.810703,278.928388,1263.480858
4.002773,63.725265,279.563572,1266.273318
4.012773,63.639553,280.197931,1269.072127
4.022773,63.553440,280.831465,1271.877274
4.032773,63.466986,281.464166,1274.688753
4.042773,63.380297,282.096026,1277.506555
4.052773,63.293243,282.727037,1280.330671
4.062773,63.205621,283.357192,1283.161093
4.072773,63.117602,283.986484,1285.997812
4.082773,63.029203,284.614903,1288.840819
4.092773,62.940532,285.242441,1291.690107
4.102773,62.851521,285.869090,1294.545665
4.112773,62.762258,286.494844,1297.407486
4.122773,62.672610,287.119694,1300.275559
4.132773,62.582667,287.743634,1303.149876
4.142773,62.492434,288.366657,1306.030429
4.152773,62.401495,288.988754,1308.917206
4.162773,62.310231,289.609918,1311.810201
4.172773,62.218619,290.230143,1314.709402
4.182773,62.126709,290.849424,1317.614800
4.192773,62.034408,291.467757,1320.526387
4.202773,61.941787,292.085139,1323.444152
4.212773,61.848793,292.701567,1326.368087
4.222773,61.755487,293.317037,1329.298180
4.232773,61.661583,293.931549,1332.234424
4.242773,61.567122,294.545098,1335.176808
4.252773,61.472228,295.157682,1338.125323
4.262773,61.376994,295.769302,1341.079959
4.272773,61.281315,296.379956,1344.040706
4.282773,61.185234,296.989646,1347.007555
4.292773,61.088741,297.598372,1349.980495
4.302773,60.991656,298.206132,1352.959519
4.312773,60.894019,298.812926,1355.944615
4.322773,60.796003,299.418752,1358.935774
4.332773,60.697549,300.023609,1361.932987
4.342773,60.598694,300.627497,1364.936243
4.352773,60.499516,301.230415,1367.945533
4.362773,60.399968,301.832360,1370.960848
4.372773,60.299926,302.433330,1373.982177
4.382773,60.199396,303.033320,1377.009511
4.392773,60.098536,303.632327,1380.042840
4.402773,59.997385,304.230345,1383.082155
4.412773,59.895901,304.827371,1386.127444
4.422773,59.794094,305.423400,1389.178699
4.432773,59.692048,306.018427,1392.235909
4.440981,59.604822,306.506052,1394.749671
4.442264,59.588105,306.582187,1395.142857
4.443546,59.571359,306.658301,1395.536140
4.444829,59.554643,306.734394,1395.929522
4.446112,59.537902,306.810465,1396.323001
4.447394,59.521183,306.886514,1396.716577
4.449960,59.487701,307.038550,1397.504023
4.452525,59.454215,307.190500,1398.291858
4.455090,59.420682,307.342365,1399.080083
4.457656,59.387186,307.494144,1399.868698
4.462279,59.326745,307.767504,1401.291122
4.466903,59.269890,308.040593,1402.714810
4.471527,59.216513,308.313427,1404.139759
4.476151,59.163131,308.586014,1405.565970
4.480775,59.109709,308.858356,1406.993441
4.487834,59.028122,309.273686,1409.175287
4.494894,58.946458,309.688438,1411.360063
4.501953,58.864754,310.102608,1413.547766
4.509012,58.783004,310.516195,1415.738390
4.516072,58.701214,310.929200,1417.931931
4.525586,58.575253,311.484809,1420.892720
4.535100,58.427498,312.039125,1423.858789
4.544614,58.279493,312.592008,1426.830125
4.554127,58.131242,313.143433,1429.806715
4.563641,57.982766,313.693433,1432.788543
4.573155,57.834034,314.242025,1435.775598
4.583155,57.658816,314.817034,1438.920894
4.593155,57.452761,315.390141,1442.071932
4.603155,57.246343,315.961151,1445.228690
4.613155,57.039536,316.530035,1448.391148
4.623155,56.832371,317.096844,1451.559284
4.633155,56.624817,317.661605,1454.733078
4.643155,56.407060,318.224254,1457.912509
