# Time (s), acceleration Magnitude (m/s²), Vz (m/s), Z (m)
0.000000,71.179551,0.000000,697.000000
0.005755,71.187981,0.409503,697.002357
0.011510,71.196374,0.819054,697.007070
0.021510,71.210873,1.530757,697.018820
0.031510,71.225239,2.242604,697.037686
0.041510,71.239517,2.954595,697.063672
0.051510,71.253675,3.666727,697.096779
0.061510,71.267627,4.379000,697.137008
0.071510,71.281455,5.091412,697.184360
0.081510,71.295109,5.803961,697.238837
0.091510,71.308564,6.516645,697.300440
0.101510,71.321961,7.229464,697.369170
0.111510,71.335217,7.942416,697.445029
0.121510,71.348340,8.655500,697.528019
0.131510,71.361338,9.368714,697.618140
0.141510,71.374135,10.082057,697.715394
0.151510,71.386862,10.795528,697.819782
0.161510,71.399457,11.509125,697.931305
0.171510,71.411896,12.222848,698.049965
0.181510,71.424229,12.936694,698.175763
0.191510,71.436330,13.650662,698.308700
0.201510,71.448326,14.364751,698.448777
0.211510,71.460226,15.078959,698.595995
0.221510,71.472025,15.793286,698.750356
0.231510,71.483723,16.507730,698.911861
0.241510,71.495319,17.222290,699.080512
0.251510,71.506656,17.936965,699.256308
0.261510,71.517857,18.651753,699.439251
0.271510,71.528960,19.366652,699.629343
0.281510,71.539964,20.081662,699.826585
0.291510,71.550870,20.796781,700.030977
0.301510,71.561689,21.512009,700.242521
0.311510,71.572224,22.227344,700.461218
0.321510,71.582631,22.942783,700.687068
0.331510,71.592940,23.658326,700.920074
0.341510,71.603153,24.373971,701.160235
0.351510,71.613273,25.089718,701.407554
0.361510,71.623297,25.805566,701.662030
0.371510,71.633032,26.521512,701.923665
0.381510,71.642644,27.237555,702.192461
0.391510,71.652160,27.953694,702.468417
0.401510,71.661580,28.669927,702.751535
0.411510,71.670903,29.386254,703.041816
0.421510,71.680131,30.102674,703.339260
0.431510,71.689065,30.819184,703.643870
0.441510,71.697879,31.535783,703.955644
0.451510,71.706595,32.252470,704.274585
0.461510,71.715216,32.969243,704.600694
0.471510,71.723740,33.686103,704.933971
0.481510,71.732168,34.403046,705.274416
0.491510,71.740293,35.120073,705.622032
0.501510,71.748302,35.837180,705.976818
0.511510,71.756215,36.554367,706.338776
0.521510,71.764032,37.271632,706.707906
0.531510,71.771753,37.988975,707.084209
0.541510,71.779371,38.706395,707.467686
0.551510,71.786681,39.423889,707.858337
0.561510,71.793883,40.141456,708.256164
0.571510,71.800988,40.859094,708.661166
0.581510,71.807996,41.576803,709.073346
0.591510,71.814898,42.294581,709.492703
0.601510,71.821704,43.012428,709.919238
0.611510,71.828156,43.730341,710.352952
0.621510,71.834502,44.448318,710.793845
0.623820,71.835954,44.614145,710.896690
0.625040,71.843484,44.701759,710.951238
0.626260,71.844247,44.789374,711.005893
0.628701,71.845767,44.964606,711.115416
0.631141,71.847335,45.139841,711.225366
0.633582,71.848952,45.315081,711.335745
0.643582,71.854952,46.033162,711.792486
0.653582,71.860992,46.751304,712.256408
0.663582,71.866935,47.469506,712.727512
0.673582,71.872752,48.187767,713.205799
0.683582,71.878546,48.906087,713.691268
0.693582,71.883871,49.624464,714.183920
0.703582,71.889016,50.342894,714.683757
0.713582,71.894145,51.061375,715.190779
0.723582,71.899176,51.779908,715.704985
0.729063,71.901899,52.173764,715.989874
0.734544,71.904395,52.567634,716.276922
0.740025,71.907168,52.961518,716.566129
0.745506,71.909800,53.355418,716.857495
0.755506,71.914336,54.074108,717.394642
0.765506,71.918968,54.792845,717.938977
0.775506,71.923339,55.511628,718.490499
0.785506,71.927280,56.230453,719.049210
0.795506,71.931261,56.949319,719.615108
0.805506,71.935171,57.668225,720.188196
0.815506,71.938844,58.387169,720.768473
0.825506,71.942607,59.106152,721.355940
0.835506,71.946011,59.825171,721.950596
0.845506,71.949593,60.544225,722.552443
0.855506,71.952713,61.263314,723.161481
0.865506,71.955729,61.982434,723.777710
0.875506,71.958553,62.701583,724.401130
0.885506,71.961270,63.420759,725.031741
0.895506,71.963777,64.139962,725.669545
0.905506,71.966379,64.859189,726.314541
0.915506,71.968828,65.578442,726.966729
0.925506,71.971191,66.297718,727.626110
0.935506,71.973244,67.017016,728.292683
0.945506,71.975061,67.736333,728.966450
0.955506,71.976750,68.455665,729.647410
0.965506,71.978368,69.175013,730.335563
0.975506,71.979786,69.894375,731.030910
0.985506,71.981270,70.613750,731.733451
0.995506,71.982487,71.333136,732.443185
1.005506,71.983660,72.052533,733.160114
1.015506,71.984572,72.771938,733.884236
1.025506,71.985208,73.491348,734.615552
1.035506,71.985716,74.210762,735.354063
1.045506,71.986206,74.930177,736.099768
1.055506,71.986596,75.649595,736.852666
1.065506,71.986854,76.369012,737.612759
1.075506,71.987022,77.088429,738.380047
1.085506,71.987090,77.807843,739.154528
1.095506,71.986919,78.527254,739.936204
1.105506,71.986576,79.246658,740.725073
1.115506,71.986012,79.966054,741.521137
1.125506,71.985111,80.685439,742.324394
1.135506,71.984442,81.404813,743.134845
1.145506,71.983394,82.124173,743.952490
1.155506,71.982383,82.843519,744.777329
1.165506,71.981313,83.562850,745.609361
1.175506,71.980020,84.282165,746.448586
1.185506,71.978379,85.001461,747.295004
1.195506,71.976559,85.720735,748.148615
1.205506,71.974830,86.439986,749.009419
1.215506,71.972739,87.159213,749.877415
1.225506,71.970585,87.878414,750.752603
1.235506,71.968355,88.597588,751.634983
1.245506,71.966132,89.316734,752.524554
1.255506,71.963473,90.035850,753.421317
1.265506,71.960747,90.754934,754.325271
1.275506,71.957692,91.473983,755.236416
1.285506,71.954532,92.192994,756.154751
1.295506,71.951213,92.911967,757.080276
1.305506,71.947901,93.630899,758.012990
1.315506,71.944322,94.349790,758.952893
1.325506,71.940833,95.068638,759.899986
1.335506,71.937041,95.787441,760.854266
1.345506,71.933216,96.506197,761.815734
1.355506,71.929156,97.224904,762.784390
1.365506,71.925023,97.943559,763.760232
1.375506,71.920559,98.662159,764.743261
1.385506,71.915822,99.380701,765.733475
1.395506,71.910980,100.099181,766.730875
1.405506,71.905942,100.817597,767.735459
1.415506,71.900754,101.535945,768.747226
1.425506,71.895572,102.254225,769.766177
1.435506,71.890082,102.972432,770.792311
1.445506,71.884842,103.690564,771.825626
1.455506,71.879373,104.408618,772.866122
1.465506,71.873798,105.126589,773.913798
1.475506,71.868208,105.844476,774.968653
1.485506,71.862545,106.562276,776.030687
1.495506,71.856310,107.279984,777.099898
1.505506,71.849831,107.997598,778.176286
1.515506,71.843345,108.715113,779.259850
1.525506,71.836557,109.432528,780.350588
1.535506,71.829937,110.149842,781.448500
1.545506,71.823094,110.867054,782.553585
1.555506,71.816111,111.584163,783.665841
1.565506,71.808947,112.301169,784.785268
1.575506,71.801717,113.018070,785.911864
1.585506,71.794307,113.734866,787.045629
1.595506,71.786852,114.451558,788.186561
1.605506,71.779022,115.168145,789.334660
1.615506,71.770690,115.884626,790.489923
1.625506,71.761994,116.601000,791.652352
1.635506,71.753300,117.317269,792.821943
1.645506,71.744402,118.033435,793.998697
1.655506,71.735254,118.749499,795.182611
1.665506,71.726039,119.465462,796.373686
1.675506,71.716630,120.181325,797.571920
1.685506,71.707109,120.897090,798.777313
1.695506,71.697300,121.612758,799.989862
1.705506,71.687469,122.328331,801.209567
1.715506,71.677263,123.043810,802.436428
1.725506,71.666651,123.759196,803.670443
1.735506,71.655778,124.474488,804.911612
1.745506,71.644812,125.189688,806.159933
1.755506,71.633643,125.904798,807.415405
1.765506,71.622224,126.619819,808.678028
1.775506,71.610669,127.334753,809.947801
1.785506,71.599004,128.049602,811.224723
1.795506,71.587088,128.764368,812.508793
1.805506,71.574973,129.479050,813.800010
1.815506,71.562823,130.193650,815.098374
1.825506,71.550375,130.908170,816.403883
1.835506,71.537472,131.622608,817.716537
1.845506,71.524209,132.336961,819.036335
1.855506,71.510905,133.051229,820.363276
1.865506,71.497287,133.765411,821.697359
1.875506,71.483735,134.479508,823.038584
1.885506,71.470031,135.193518,824.386949
1.895506,71.456034,135.907439,825.742454
1.905506,71.441814,136.621270,827.105097
1.915506,71.427734,137.335006,828.474879
1.925506,71.413383,138.048648,829.851797
1.935506,71.398889,138.762191,831.235852
1.945506,71.384047,139.475630,832.627041
1.955506,71.368812,140.188960,834.025364
1.965506,71.353699,140.902175,835.430820
1.975506,71.338212,141.615270,836.843407
1.985506,71.322644,142.328242,838.263125
1.995506,71.307220,143.041084,839.689971
2.005506,71.291445,143.753794,841.123946
2.015506,71.275711,144.466364,842.565047
2.025506,71.259811,145.178789,844.013273
2.035506,71.243848,145.891064,845.468622
2.045506,71.227799,146.603184,846.931093
2.055506,71.211664,147.315142,848.400685
2.065506,71.195035,148.026928,849.877396
2.075506,71.178373,148.738534,851.361223
2.085506,71.161684,149.449954,852.852166
2.095506,71.144929,150.161183,854.350222
2.105506,71.127989,150.872217,855.855389
2.115506,71.110954,151.583049,857.367665
2.125506,71.093887,152.293678,858.887049
2.135506,71.076724,153.004098,860.413538
2.145506,71.059378,153.714308,861.947130
2.155506,71.041970,154.424305,863.487824
2.165506,71.024235,155.134086,865.035616
2.175506,71.006248,155.843649,866.590505
2.185506,70.987666,156.552990,868.152488
2.195506,70.968876,157.262107,869.721564
2.205506,70.950059,157.971001,871.297729
2.215506,70.931023,158.679674,872.880983
2.225506,70.911801,159.388127,874.471322
2.235506,70.892145,160.096362,876.068745
2.245506,70.872554,160.804380,877.673249
2.255506,70.852517,161.512185,879.284832
2.265506,70.832390,162.219779,880.903492
2.275506,70.811991,162.927164,882.529226
2.285506,70.791238,163.634345,884.162034
2.295506,70.770280,164.341321,885.801913
2.305506,70.749122,165.048096,887.448860
2.315506,70.727755,165.754674,889.102874
2.325506,70.705786,166.461053,890.763953
2.335506,70.683259,167.167234,892.432094
2.345506,70.660467,167.873213,894.107297
2.355506,70.637461,168.578993,895.789558
2.365506,70.614283,169.284576,897.478876
2.375506,70.590868,169.989964,899.175249
2.385506,70.567190,170.695156,900.878675
2.395506,70.543320,171.400150,902.589151
2.405506,70.519442,172.104945,904.306677
2.415506,70.495319,172.809540,906.031249
2.425506,70.471192,173.513932,907.762867
2.435506,70.446788,174.218118,909.501527
2.445506,70.422346,174.922096,911.247229
2.455506,70.397828,175.625862,912.999969
2.465506,70.373156,176.329412,914.759745
2.475506,70.348328,177.032742,916.526556
2.485506,70.322785,177.735847,918.300399
2.495506,70.297206,178.438718,920.081272
2.505506,70.271418,179.141352,921.869173
2.515506,70.245525,179.843745,923.664099
2.525506,70.219580,180.545895,925.466047
2.535506,70.193490,181.247800,927.275016
2.545506,70.167153,181.949454,929.091002
2.555506,70.140712,182.650856,930.914004
2.565506,70.114085,183.352002,932.744018
2.575506,70.087278,184.052891,934.581043
2.585506,70.060233,184.753520,936.425075
2.595506,70.033018,185.453887,938.276113
2.605506,70.005604,186.153988,940.134152
2.615506,69.977963,186.853823,941.999191
2.625506,69.949866,187.553387,943.871228
2.635506,69.920391,188.252671,945.750258
2.645506,69.890685,188.951667,947.636280
2.655506,69.860798,189.650369,949.529291
2.665506,69.830754,190.348775,951.429287
2.675506,69.800498,191.046884,953.336265
2.685506,69.769962,191.744690,955.250223
2.695506,69.739357,192.442190,957.171158
2.705506,69.708611,193.139379,959.099066
2.715506,69.677763,193.836253,961.033944
2.725506,69.646782,194.532808,962.975790
2.735506,69.615578,195.229040,964.924600
2.745506,69.584348,195.924944,966.880370
2.755506,69.552968,196.620516,968.843097
2.765506,69.521575,197.315752,970.812779
2.775506,69.489882,198.010648,972.789411
2.785506,69.457817,198.705199,974.772991
2.795506,69.425292,199.399398,976.763514
2.805506,69.392688,200.093242,978.760978
2.815506,69.359751,200.786727,980.765378
2.825506,69.326829,201.479854,982.776711
2.835506,69.293527,202.172620,984.794974
2.845506,69.260071,202.865025,986.820162
2.855506,69.226317,203.557068,988.852273
2.865506,69.192330,204.248751,990.891302
2.875506,69.158123,204.940073,992.937247
2.885506,69.123385,205.631037,994.990102
2.895506,69.088415,206.321642,997.049866
2.905506,69.053292,207.011891,999.116534
2.915506,69.017139,207.701783,1001.190103
2.925506,68.980658,208.391316,1003.270569
2.935506,68.943521,209.080489,1005.357928
2.945506,68.906074,209.769301,1007.452177
2.955506,68.868385,210.457755,1009.553313
2.965506,68.830459,211.145850,1011.661331
2.975506,68.792328,211.833588,1013.776229
2.985506,68.753904,212.520967,1015.898002
2.995506,68.715155,213.207985,1018.026647
3.005506,68.676444,213.894641,1020.162160
3.015506,68.637438,214.580933,1022.304538
3.025506,68.598224,215.266861,1024.453778
3.035506,68.558479,215.952418,1026.609874
3.045506,68.518407,216.637600,1028.772825
3.055506,68.478098,217.322402,1030.942625
3.065506,68.437491,218.006822,1033.119271
3.075506,68.396711,218.690858,1035.302760
3.085506,68.355601,219.374508,1037.493087
3.095506,68.314353,220.057766,1039.690249
3.105506,68.272947,220.740628,1041.894241
3.115506,68.231457,221.423090,1044.105060
3.125506,68.189704,222.105149,1046.322702
3.135506,68.147681,222.786801,1048.547162
3.145506,68.105491,223.468040,1050.778436
3.155506,68.063051,224.148863,1053.016521
3.165506,68.019836,224.829264,1055.261412
3.175506,67.976424,225.509235,1057.513105
3.185506,67.932595,226.188772,1059.771596
3.195506,67.888510,226.867871,1062.036879
3.205506,67.844137,227.546527,1064.308951
3.215506,67.799593,228.224738,1066.587808
3.225506,67.754799,228.902499,1068.873445
3.235506,67.709478,229.579805,1071.165857
3.245506,67.663575,230.256650,1073.465039
3.255506,67.617396,230.933026,1075.770988
3.265506,67.571099,231.608929,1078.083698
3.275506,67.524625,232.284356,1080.403165
3.285506,67.477474,232.959301,1082.729384
3.295506,67.429865,233.633757,1085.062349
3.305506,67.382054,234.307717,1087.402057
3.315506,67.334067,234.981177,1089.748502
3.325506,67.285958,235.654135,1092.101679
3.335506,67.237365,236.326587,1094.461583
3.345506,67.188550,236.998528,1096.828209
3.355506,67.139577,237.669957,1099.201552
3.365506,67.090306,238.340870,1101.581607
3.375506,67.040774,239.011267,1103.968368
3.385506,66.990833,239.681146,1106.361830
3.395506,66.939971,240.350502,1108.761989
3.405506,66.888802,241.019332,1111.168838
3.415506,66.837373,241.687635,1113.582374
3.425506,66.785606,242.355412,1116.002589
3.435506,66.738367,243.022685,1118.429480
3.445506,66.695557,243.689501,1120.863042
3.455506,66.652553,244.355895,1123.303269
3.465506,66.609312,245.021871,1125.750158
3.475506,66.565902,245.687421,1128.203705
3.485506,66.522505,246.352544,1130.663905
3.495506,66.479112,247.017247,1133.130754
3.505506,66.435406,247.681534,1135.604249
3.515506,66.391560,248.345404,1138.084384
3.525506,66.347543,249.008855,1140.571155
3.535506,66.303425,249.671884,1143.064559
3.545506,66.259414,250.334495,1145.564592
3.555506,66.215171,250.996685,1148.071248
3.565506,66.170877,251.658453,1150.584524
3.575506,66.126547,252.319798,1153.104415
3.585506,66.082187,252.980716,1155.630918
3.595506,66.037651,253.641206,1158.164028
3.605506,65.992622,254.301264,1160.703741
3.615506,65.947523,254.960884,1163.250052
3.625506,65.902283,255.620062,1165.802957
3.635506,65.857080,256.278797,1168.362452
3.645506,65.811671,256.937086,1170.928532
3.655506,65.766140,257.594927,1173.501192
3.665506,65.720547,258.252315,1176.080429
3.675506,65.674754,258.909247,1178.666237
3.685506,65.628942,259.565721,1181.258612
3.695506,65.582984,260.221734,1183.857550
3.705506,65.536539,260.877280,1186.463045
3.715506,65.489927,261.532354,1189.075094
3.725506,65.443179,262.186951,1191.693691
3.735506,65.396431,262.841070,1194.318831
3.745506,65.349549,263.494708,1196.950511
3.755506,65.302630,264.147862,1199.588724
3.765506,65.255581,264.800531,1202.233466
3.775506,65.208368,265.452716,1204.884733
3.785506,65.161075,266.104415,1207.542519
3.795506,65.113695,266.755626,1210.206820
3.805506,65.065944,267.406348,1212.877630
3.815506,65.017841,268.056577,1215.554945
3.825506,64.969600,268.706312,1218.238760
3.835506,64.921205,269.355550,1220.929069
3.845506,64.872691,270.004294,1223.625869
3.855506,64.824051,270.652541,1226.329154
3.865506,64.775276,271.300293,1229.038918
3.875506,64.726319,271.947548,1231.755158
3.885506,64.677271,272.594308,1234.477868
3.895506,64.627797,273.240570,1237.207042
3.905506,64.578161,273.886333,1239.942677
3.915506,64.528378,274.531597,1242.684767
3.925506,64.478456,275.176361,1245.433308
3.935506,64.428489,275.820625,1248.188293
3.945506,64.378344,276.464391,1250.949718
3.955506,64.314735,277.107599,1253.717579
3.965506,64.232597,277.750099,1256.491868
3.975506,64.150004,278.391768,1259.272578
3.985506,64.066675,279.032582,1262.059701
3.995506,63.983071,279.672570,1264.853227
4.005506,63.899018,280.311743,1267.653149
4.015506,63.814642,280.950087,1270.459459
4.025506,63.729814,281.587586,1273.272148
4.035506,63.644621,282.224236,1276.091208
4.045506,63.559065,282.860038,1278.916630
4.055506,63.473159,283.494993,1281.748406
4.065506,63.386593,284.129091,1284.586527
4.075506,63.299543,284.762324,1287.430985
4.085506,63.212177,285.394685,1290.281771
4.095506,63.124495,286.026173,1293.138876
4.105506,63.036453,286.656781,1296.002291
4.115506,62.948065,287.286504,1298.872008
4.125506,62.859789,287.915331,1301.748018
4.135506,62.771451,288.543248,1304.630312
4.145506,62.682890,289.170244,1307.518880
4.155506,62.593869,289.796314,1310.413714
4.165506,62.504654,290.421454,1313.314803
4.175506,62.415186,291.045662,1316.222140
4.185506,62.325353,291.668936,1319.135713
4.195506,62.235068,292.291277,1322.055515
4.205506,62.144299,292.912684,1324.981536
4.215506,62.052958,293.533159,1327.913766
4.225506,61.960946,294.152704,1330.852196
4.235506,61.868047,294.771319,1333.796817
4.245506,61.774405,295.389004,1336.747619
4.255506,61.680148,296.005761,1339.704594
4.265506,61.585291,296.621592,1342.667731
4.275506,61.489892,297.236498,1345.637023
4.285506,61.393995,297.850479,1348.612458
4.295506,61.297740,298.463533,1351.594029
4.305506,61.200878,299.075659,1354.581726
4.315506,61.103732,299.686851,1357.575539
4.325506,61.006342,300.297106,1360.575460
4.335506,60.908792,300.906419,1363.581478
4.345506,60.811093,301.514787,1366.593585
4.355506,60.713255,302.122204,1369.611771
4.365506,60.615199,302.728665,1372.636026
4.375506,60.516645,303.334161,1375.666341
4.385506,60.417806,303.938686,1378.702706
4.395506,60.318622,304.542233,1381.745111
4.405506,60.219125,305.144796,1384.793547
4.415506,60.119222,305.746370,1387.848004
4.425506,60.018961,306.346948,1390.908471
4.435506,59.918518,306.946526,1393.974939
4.443688,59.825298,307.436303,1396.488326
4.444967,59.808829,307.512803,1396.881624
4.446246,59.792324,307.589281,1397.275019
4.447525,59.775827,307.665738,1397.668513
4.448804,59.759315,307.742174,1398.062104
4.450084,59.742802,307.818589,1398.455793
4.452642,59.709775,307.971355,1399.243464
4.455200,59.676734,308.124036,1400.031526
4.457758,59.643644,308.276632,1400.819978
4.460317,59.610541,308.429144,1401.608821
4.464933,59.550745,308.704169,1403.033443
4.469550,59.490873,308.978917,1404.459335
4.474167,59.430931,309.253387,1405.886494
4.478784,59.370907,309.527579,1407.314920
4.483401,59.310797,309.801493,1408.744611
4.490478,59.218555,310.220828,1410.938603
4.497555,59.126162,310.639507,1413.135559
4.504632,59.040612,311.057552,1415.335476
4.511710,58.958854,311.474996,1417.538350
4.518787,58.877039,311.891859,1419.744176
4.528308,58.766902,312.451803,1422.716590
4.537830,58.656711,313.010694,1425.694331
4.547352,58.546510,313.568521,1428.677389
4.556874,58.436324,314.125278,1431.665753
4.566395,58.291799,314.680826,1434.659412
4.575917,58.144340,315.234983,1437.658355
4.585917,57.989330,315.815400,1440.813608
4.595917,57.834045,316.394227,1443.974658
4.605917,57.678527,316.971506,1447.141488
4.615917,57.522205,317.547232,1450.314083
4.625917,57.317052,318.121168,1453.492427
4.635917,57.111394,318.693050,1456.676499
4.645917,56.905218,319.262800,1459.866280
