# Time (s), acceleration Magnitude (m/s²), Vz (m/s), Z (m)
0.000000,71.214627,0.000000,697.000000
0.005764,71.223057,0.408860,697.002357
0.011528,71.231450,0.817768,697.007070
0.021528,71.245927,1.527237,697.018796
0.031528,71.260267,2.236850,697.037616
0.041528,71.274480,2.946605,697.063533
0.051528,71.288581,3.656500,697.096549
0.061528,71.302479,4.366536,697.136664
0.071528,71.316252,5.076709,697.183880
0.081528,71.329847,5.787018,697.238199
0.091528,71.343287,6.497462,697.299621
0.101528,71.356690,7.208039,697.368149
0.111528,71.369911,7.918749,697.443783
0.121528,71.382998,8.629591,697.526524
0.131528,71.395959,9.340561,697.616375
0.141528,71.408736,10.051660,697.713336
0.151528,71.421450,10.762886,697.817409
0.161528,71.434015,11.474238,697.928595
0.171528,71.446424,12.185714,698.046894
0.181528,71.458728,12.897314,698.172309
0.191528,71.470809,13.609034,698.304841
0.201528,71.482783,14.320875,698.444491
0.211528,71.494657,15.032834,698.591259
0.221528,71.506429,15.744911,698.745148
0.231528,71.518101,16.457104,698.906158
0.241528,71.529679,17.169414,699.074290
0.251528,71.540990,17.881838,699.249547
0.261528,71.552167,18.594373,699.431928
0.271528,71.563245,19.307019,699.621435
0.281528,71.574225,20.019775,699.818068
0.291528,71.585112,20.732640,700.021831
0.301528,71.595908,21.445613,700.232722
0.311528,71.606420,22.158692,700.450743
0.321528,71.616804,22.871875,700.675896
0.331528,71.627091,23.585161,700.908181
0.341528,71.637285,24.298549,701.147600
0.351528,71.647384,25.012038,701.394153
0.361528,71.657387,25.725628,701.647841
0.371528,71.667101,26.439315,701.908666
0.381528,71.676693,27.153099,702.176628
0.391528,71.686190,27.866977,702.451728
0.401528,71.695591,28.580950,702.733968
0.411528,71.704896,29.295016,703.023347
0.421528,71.714105,30.009174,703.319868
0.431528,71.723021,30.723422,703.623531
0.441528,71.731817,31.437759,703.934337
0.451528,71.740517,32.152182,704.252287
0.461528,71.749121,32.866692,704.577381
0.471528,71.757630,33.581287,704.909621
0.481528,71.766043,34.295966,705.249007
0.491528,71.774151,35.010728,705.595540
0.501528,71.782147,35.725570,705.949222
0.511528,71.790047,36.440490,706.310052
0.521528,71.797851,37.155489,706.678032
0.531528,71.805558,37.870565,707.053162
0.541528,71.813164,38.585718,707.435444
0.551528,71.820463,39.300945,707.824877
0.561528,71.827655,40.016244,708.221463
0.571528,71.834751,40.731614,708.625202
0.581528,71.841747,41.447054,709.036095
0.591528,71.848642,42.162563,709.454143
0.601528,71.855440,42.878141,709.879347
0.611528,71.861885,43.593784,710.311707
0.621528,71.868226,44.309492,710.751223
0.623669,71.869571,44.462736,710.846256
0.624895,71.880833,44.550379,710.900855
0.626121,71.881457,44.638024,710.955563
0.628572,71.882977,44.813315,711.065192
0.631023,71.884382,44.988610,711.175251
0.633474,71.885976,45.163908,711.285739
0.643474,71.892093,45.879115,711.740954
0.653474,71.898051,46.594382,712.203322
0.663474,71.904130,47.309707,712.672842
0.673474,71.910023,48.025086,713.149516
0.683474,71.915886,48.740519,713.633344
0.693474,71.921228,49.456000,714.124326
0.703474,71.926716,50.171525,714.622464
0.713474,71.931881,50.887092,715.127757
0.723474,71.937082,51.602697,715.640206
0.733474,71.942281,52.318339,716.159811
0.743474,71.947380,53.034016,716.686573
0.753474,71.952406,53.749724,717.220492
0.763474,71.957278,54.465461,717.761567
0.773474,71.961811,55.181221,718.309801
0.783474,71.966378,55.897001,718.865192
0.793474,71.970624,56.612799,719.427741
0.803474,71.974937,57.328610,719.997448
0.813474,71.979180,58.044432,720.574313
0.823474,71.983400,58.760262,721.158337
0.833474,71.987484,59.476098,721.749518
0.843474,71.991413,60.191935,722.347859
0.853474,71.995083,60.907770,722.953357
0.863474,71.998724,61.623598,723.566014
0.873474,72.002034,62.339415,724.185829
0.883474,72.005626,63.055219,724.812802
0.893474,72.008924,63.771008,725.446933
0.903474,72.012207,64.486776,726.088222
0.913474,72.015363,65.202523,726.736669
0.923474,72.018323,65.918242,727.392273
0.933474,72.021450,66.633932,728.055034
0.943474,72.024082,67.349589,728.724951
0.953474,72.026474,68.065206,729.402025
0.963474,72.028930,68.780782,730.086255
0.973474,72.031406,69.496312,730.777641
0.983474,72.033720,70.211795,731.476181
0.993474,72.035848,70.927227,732.181876
1.003474,72.038008,71.642605,732.894726
1.013474,72.040007,72.357925,733.614728
1.023474,72.041688,73.073185,734.341884
1.033474,72.043300,73.788379,735.076192
1.043474,72.044802,74.503506,735.817651
1.053474,72.046192,75.218562,736.566262
1.063474,72.047466,75.933545,737.322022
1.073474,72.048636,76.648452,738.084932
1.083474,72.049856,77.363281,738.854991
1.093474,72.050874,78.078031,739.632198
1.103474,72.051572,78.792699,740.416551
1.113474,72.052049,79.507280,741.208051
1.123474,72.052469,80.221773,742.006697
1.133474,72.052763,80.936176,742.812487
1.143474,72.052927,81.650488,743.625420
1.153474,72.053042,82.364708,744.445496
1.163474,72.053097,83.078836,745.272714
1.173474,72.052975,83.792871,746.107072
1.183474,72.052588,84.506811,746.948571
1.193474,72.051805,85.220655,747.797208
1.203474,72.051072,85.934401,748.652984
1.213474,72.050104,86.648050,749.515896
1.223474,72.048934,87.361602,750.385944
1.233474,72.047692,88.075058,751.263128
1.243474,72.046375,88.788418,752.147445
1.253474,72.044978,89.501685,753.038896
1.263474,72.043009,90.214859,753.937479
1.273474,72.040698,90.927940,754.843193
1.283474,72.038105,91.640929,755.756037
1.293474,72.035376,92.353827,756.676011
1.303474,72.032464,93.066638,757.603113
1.313474,72.029426,93.779365,758.537343
1.323474,72.026169,94.492009,759.478700
1.333474,72.022611,95.204572,760.427183
1.343474,72.019056,95.917057,761.382792
1.353474,72.015445,96.629468,762.345524
1.363474,72.011505,97.341807,763.315381
1.373474,72.007433,98.054076,764.292360
1.383474,72.002760,98.766277,765.276462
1.393474,71.997807,99.478410,766.267685
1.403474,71.992928,100.190477,767.266030
1.413474,71.987690,100.902483,768.271495
1.423474,71.982199,101.614428,769.284079
1.433474,71.976732,102.326316,770.303783
1.443474,71.970984,103.038151,771.330606
1.453474,71.965056,103.749935,772.364546
1.463474,71.958858,104.461669,773.405604
1.473474,71.952604,105.173356,774.453779
1.483474,71.946239,105.885000,775.509071
1.493474,71.939359,106.596601,776.571479
1.503474,71.932140,107.308160,777.641003
1.513474,71.924689,108.019676,778.717642
1.523474,71.917078,108.731151,779.801396
1.533474,71.909420,109.442588,780.892265
1.543474,71.901579,110.153988,781.990248
1.553474,71.893451,110.865352,783.095345
1.563474,71.885192,111.576680,784.207555
1.573474,71.876812,112.287975,785.326878
1.583474,71.868342,112.999235,786.453314
1.593474,71.859703,113.710463,787.586863
1.603474,71.850701,114.421658,788.727523
1.613474,71.841379,115.132817,789.875296
1.623474,71.831728,115.843939,791.030180
1.633474,71.822100,116.555022,792.192174
1.643474,71.812329,117.266067,793.361280
1.653474,71.802331,117.977072,794.537496
1.663474,71.792238,118.688037,795.720821
1.673474,71.782013,119.398960,796.911256
1.683474,71.771741,120.109839,798.108800
1.693474,71.761197,120.820674,799.313453
1.703474,71.750734,121.531461,800.525214
1.713474,71.739969,122.242200,801.744082
1.723474,71.728696,122.952884,802.970057
1.733474,71.717275,123.663510,804.203139
1.743474,71.705782,124.374074,805.443327
1.753474,71.694358,125.084575,806.690621
1.763474,71.682532,125.795010,807.945019
1.773474,71.670652,126.505373,809.206521
1.783474,71.658985,127.215664,810.475126
1.793474,71.646901,127.925878,811.750834
1.803474,71.634693,128.636011,813.033643
1.813474,71.622619,129.346059,814.323554
1.823474,71.610347,130.056020,815.620564
1.833474,71.597659,130.765886,816.924674
1.843474,71.584769,131.475653,818.235882
1.853474,71.571613,132.185313,819.554186
1.863474,71.558500,132.894862,820.879587
1.873474,71.545334,133.604295,822.212083
1.883474,71.531977,134.313609,823.551673
1.893474,71.518591,135.022799,824.898355
1.903474,71.505117,135.731857,826.252128
1.913474,71.491704,136.440782,827.612992
1.923474,71.477882,137.149566,828.980944
1.933474,71.464138,137.858204,830.355983
1.943474,71.450260,138.566690,831.738107
1.953474,71.435915,139.275017,833.127316
1.963474,71.421398,139.983178,834.523607
1.973474,71.406917,140.691166,835.926979
1.983474,71.392317,141.398977,837.337430
1.993474,71.377496,142.106604,838.754958
2.003474,71.362832,142.814043,840.179561
2.013474,71.347922,143.521288,841.611238
2.023474,71.332944,144.228334,843.049986
2.033474,71.317861,144.935176,844.495804
2.043474,71.302774,145.641809,845.948689
2.053474,71.287458,146.348228,847.408639
2.063474,71.271609,147.054428,848.875653
2.073474,71.255704,147.760400,850.349727
2.083474,71.239713,148.466142,851.830860
2.093474,71.223423,149.171649,853.319049
2.103474,71.207177,149.876918,854.814292
2.113474,71.190705,150.581947,856.316587
2.123474,71.174224,151.286733,857.825930
2.133474,71.157546,151.991276,859.342321
2.143474,71.140298,152.695573,860.865755
2.153474,71.122922,153.399624,862.396231
2.163474,71.105419,154.103429,863.933747
2.173474,71.087469,154.806987,865.478299
2.183474,71.069193,155.510297,867.029886
2.193474,71.050492,156.213357,868.588504
2.203474,71.031643,156.916165,870.154152
2.213474,71.012736,157.618724,871.726827
2.223474,70.993641,158.321036,873.306526
2.233474,70.974228,159.023102,874.893247
2.243474,70.954483,159.724924,876.486987
2.253474,70.934801,160.426503,878.087744
2.263474,70.914900,161.127844,879.695516
2.273474,70.894612,161.828948,881.310300
2.283474,70.874087,162.529818,882.932094
2.293474,70.853378,163.230454,884.560896
2.303474,70.832568,163.930862,886.196703
2.313474,70.811519,164.631043,887.839512
2.323474,70.789836,165.331000,889.489323
2.333474,70.767626,166.030731,891.146132
2.343474,70.745106,166.730235,892.809937
2.353474,70.722437,167.429515,894.480736
2.363474,70.699470,168.128572,896.158526
2.373474,70.676449,168.827410,897.843306
2.383474,70.652904,169.526030,899.535074
2.393474,70.629381,170.224433,901.233826
2.403474,70.605520,170.922621,902.939562
2.413474,70.581494,171.620595,904.652278
2.423474,70.557320,172.318355,906.371973
2.433474,70.532911,173.015901,908.098644
2.443474,70.508410,173.713232,909.832290
2.453474,70.483587,174.410347,911.572908
2.463474,70.458642,175.107245,913.320496
2.473474,70.433565,175.803922,915.075052
2.483474,70.407712,176.500376,916.836574
2.493474,70.381565,177.196599,918.605059
2.503474,70.355383,177.892587,920.380505
2.513474,70.329074,178.588337,922.162910
2.523474,70.302567,179.283848,923.952271
2.533474,70.275899,179.979114,925.748586
2.543474,70.249157,180.674130,927.551853
2.553474,70.222370,181.368893,929.362068
2.563474,70.195388,182.063398,931.179230
2.573474,70.168180,182.757639,933.003335
2.583474,70.140724,183.451610,934.834382
2.593474,70.113167,184.145305,936.672366
2.603474,70.085522,184.838718,938.517287
2.613474,70.057746,185.531843,940.369140
2.623474,70.029259,186.224674,942.227923
2.633474,69.999943,186.917197,944.093632
2.643474,69.970254,187.609402,945.966265
2.653474,69.940338,188.301279,947.845819
2.663474,69.910458,188.992825,949.732290
2.673474,69.880259,189.684034,951.625675
2.683474,69.849933,190.374899,953.525969
2.693474,69.819543,191.065415,955.433171
2.703474,69.788880,191.755576,957.347277
2.713474,69.758095,192.445376,959.268282
2.723474,69.727244,193.134811,961.196183
2.733474,69.696111,193.823876,963.130977
2.743474,69.664875,194.512567,965.072659
2.753474,69.633378,195.200878,967.021227
2.763474,69.601851,195.888807,968.976675
2.773474,69.569982,196.576350,970.939002
2.783474,69.537731,197.263502,972.908201
2.793474,69.505012,197.950260,974.884270
2.803474,69.472000,198.636618,976.867205
2.813474,69.438850,199.322575,978.857001
2.823474,69.405329,200.008131,980.853655
2.833474,69.371669,200.693284,982.857163
2.843474,69.337733,201.378036,984.867520
2.853474,69.303557,202.062385,986.884722
2.863474,69.269187,202.746334,988.908766
2.873474,69.234414,203.429883,990.939647
2.883474,69.199430,204.113035,992.977362
2.893474,69.164131,204.795790,995.021907
2.903474,69.128555,205.478151,997.073277
2.913474,69.092324,206.160120,999.131468
2.923474,69.055220,206.841693,1001.196478
2.933474,69.017715,207.522870,1003.268301
2.943474,68.980169,208.203654,1005.346934
2.953474,68.942170,208.884047,1007.432373
2.963474,68.903994,209.564053,1009.524614
2.973474,68.865338,210.243673,1011.623652
2.983474,68.826365,210.922908,1013.729486
2.993474,68.787291,211.601759,1015.842109
3.003474,68.747776,212.280228,1017.961520
3.013474,68.708133,212.958315,1020.087713
3.023474,68.668180,213.636022,1022.220685
3.033474,68.627801,214.313343,1024.360432
3.043474,68.587687,214.990261,1026.506950
3.053474,68.547446,215.666760,1028.660236
3.063474,68.507052,216.342829,1030.820284
3.073474,68.466237,217.018468,1032.987091
3.083474,68.425181,217.693677,1035.160652
3.093474,68.384003,218.368458,1037.340963
3.103474,68.342473,219.042807,1039.528020
3.113474,68.300792,219.716726,1041.721818
3.123474,68.258546,220.390213,1043.922353
3.133474,68.216152,221.063271,1046.129620
3.143474,68.173424,221.735899,1048.343617
3.153474,68.130373,222.408098,1050.564337
3.163474,68.086731,223.079870,1052.791777
3.173474,68.042457,223.751212,1055.025933
3.183474,67.997864,224.422124,1057.266800
3.193474,67.952981,225.092606,1059.514374
3.203474,67.907799,225.762661,1061.768651
3.213474,67.862382,226.432289,1064.029626
3.223474,67.816435,227.101492,1066.297295
3.233474,67.770207,227.770266,1068.571654
3.243474,67.723790,228.438614,1070.852699
3.253474,67.677069,229.106533,1073.140425
3.263474,67.630124,229.774025,1075.434828
3.273474,67.582775,230.441086,1077.735904
3.283474,67.534988,231.107713,1080.043648
3.293474,67.486659,231.773901,1082.358057
3.303474,67.438137,232.439646,1084.679125
3.313474,67.389329,233.104943,1087.006848
3.323474,67.340152,233.769788,1089.341222
3.333474,67.290697,234.434177,1091.682243
3.343474,67.241057,235.098104,1094.029904
3.353474,67.191235,235.761565,1096.384203
3.363474,67.141255,236.424555,1098.745134
3.373474,67.090752,237.087068,1101.112693
3.383474,67.040049,237.749097,1103.486874
3.393474,66.988630,238.410633,1105.867673
3.403474,66.937057,239.071669,1108.255085
3.413474,66.885341,239.732200,1110.649105
3.423474,66.838855,240.392244,1113.049727
3.433474,66.796295,241.051843,1115.456948
3.443474,66.753524,241.711021,1117.870763
3.453474,66.710716,242.369777,1120.291167
3.463474,66.667802,243.028096,1122.718157
3.473474,66.625031,243.685974,1125.151727
3.483474,66.582473,244.343413,1127.591875
3.493474,66.539712,245.000417,1130.038594
3.503474,66.496540,245.656979,1132.491882
3.513474,66.453320,246.313094,1134.951732
3.523474,66.410022,246.968759,1137.418142
3.533474,66.366543,247.623974,1139.891106
3.543474,66.323010,248.278739,1142.370620
3.553474,66.279961,248.933057,1144.856679
3.563474,66.236929,249.586932,1147.349280
3.573474,66.193845,250.240368,1149.848416
3.583474,66.150694,250.893366,1152.354086
3.593474,66.107345,251.545926,1154.866282
3.603474,66.063466,252.198048,1157.385003
3.613474,66.019325,252.849730,1159.910242
3.623474,65.975094,253.500974,1162.441996
3.633474,65.930743,254.151782,1164.980260
3.643474,65.886153,254.802157,1167.525030
3.653474,65.841503,255.452101,1170.076302
3.663474,65.796644,256.101614,1172.634070
3.673474,65.751656,256.750699,1175.198332
3.683474,65.706532,257.399357,1177.769083
3.693474,65.661287,258.047590,1180.346318
3.703474,65.615528,258.695396,1182.930033
3.713474,65.569586,259.342773,1185.520225
3.723474,65.523520,259.989721,1188.116887
3.733474,65.477297,260.636239,1190.720018
3.743474,65.431108,261.282325,1193.329611
3.753474,65.384753,261.927980,1195.945663
3.763474,65.338343,262.573201,1198.568169
3.773474,65.291897,263.217986,1201.197125
3.783474,65.244572,263.862343,1203.832527
3.793474,65.196384,264.506294,1206.474371
3.803474,65.148090,265.149853,1209.122652
3.813474,65.099526,265.793016,1211.777366
3.823474,65.050960,266.435768,1214.438511
3.833474,65.002467,267.078097,1217.106080
3.843474,64.953965,267.719994,1219.780071
3.853474,64.905528,268.361450,1222.460479
3.863474,64.857108,269.002453,1225.147299
3.873474,64.808751,269.642988,1227.840526
3.883474,64.760410,270.283040,1230.540157
3.893474,64.711922,270.922594,1233.246186
3.903474,64.663350,271.561635,1235.958607
3.913474,64.614806,272.200148,1238.677416
3.923474,64.566366,272.838121,1241.402608
3.933474,64.517923,273.475540,1244.134177
3.943474,64.469575,274.112395,1246.872117
3.953474,64.397698,274.748575,1249.616423
3.963474,64.317985,275.383917,1252.367086
3.973474,64.238000,276.018329,1255.124098
3.983474,64.157370,276.651814,1257.887450
3.993474,64.076407,277.284397,1260.657131
4.003474,63.995165,277.916079,1263.433134
4.013474,63.913464,278.546844,1266.215450
4.023474,63.831409,279.176686,1269.004068
4.033474,63.748844,279.805612,1271.798980
4.043474,63.665792,280.433632,1274.600177
4.053474,63.582257,281.060754,1277.407650
4.063474,63.497936,281.686981,1280.221389
4.073474,63.412374,282.312314,1283.041387
4.083474,63.325606,282.936741,1285.867633
4.093474,63.238258,283.560255,1288.700118
4.103474,63.150265,284.182859,1291.538835
4.113474,63.061716,284.804567,1294.383773
4.123474,62.972520,285.425391,1297.234923
4.133474,62.882742,286.045339,1300.092278
4.143474,62.792389,286.664417,1302.955827
4.153474,62.701050,287.282632,1305.825563
4.163474,62.609194,287.899989,1308.701477
4.173474,62.516965,288.516492,1311.583560
4.183474,62.424247,289.132144,1314.471804
4.193474,62.331094,289.746947,1317.366200
4.203474,62.237583,290.360899,1320.266740
4.213474,62.143767,290.973999,1323.173415
4.223474,62.049634,291.586241,1326.086217
4.233474,61.955010,292.197618,1329.005137
4.243474,61.860002,292.808119,1331.930166
4.253474,61.764775,293.417734,1334.861297
4.263474,61.669315,294.026452,1337.798518
4.273474,61.573618,294.634260,1340.741823
4.283474,61.477687,295.241146,1343.691200
4.293474,61.381569,295.847093,1346.646642
4.303474,61.285054,296.452089,1349.608139
4.313474,61.188200,297.056116,1352.575681
4.323474,61.091131,297.659159,1355.549258
4.333474,60.993834,298.261205,1358.528861
4.343474,60.896308,298.862241,1361.514479
4.353474,60.798579,299.462255,1364.506102
4.363474,60.700586,300.061236,1367.503720
4.373474,60.602163,300.659175,1370.507323
4.383474,60.503363,301.256061,1373.516900
4.393474,60.404288,301.851889,1376.532441
4.403474,60.304853,302.446654,1379.553935
4.413474,60.205066,303.040353,1382.581371
4.423474,60.104949,303.632986,1385.614738
4.433474,60.004417,304.224554,1388.654027
4.441680,59.916329,304.709177,1391.152452
4.442962,59.899776,304.784812,1391.543101
4.444244,59.883213,304.860424,1391.933847
4.445526,59.866638,304.936015,1392.324691
4.446807,59.850067,305.011584,1392.715631
4.448089,59.833483,305.087131,1393.106668
4.450653,59.800322,305.238158,1393.889032
4.453217,59.767115,305.389099,1394.671784
4.455781,59.733877,305.539951,1395.454922
4.458344,59.700646,305.690717,1396.238447
4.462967,59.640598,305.962364,1397.652312
4.467591,59.580491,306.233727,1399.067433
4.472214,59.520317,306.504808,1400.483807
4.476837,59.460029,306.775608,1401.901434
4.481460,59.399656,307.046126,1403.320312
4.488493,59.307663,307.457152,1405.481372
4.495527,59.219191,307.867543,1407.645319
4.502560,59.137697,308.277339,1409.812151
4.509594,59.056057,308.686568,1411.981864
4.516627,58.974130,309.095239,1414.154453
4.526130,58.862996,309.646512,1417.094406
4.535633,58.751591,310.196767,1420.039592
4.545136,58.639988,310.746008,1422.990004
4.554639,58.510076,311.294165,1425.945629
4.564142,58.360584,311.841073,1428.906458
4.573645,58.210811,312.386602,1431.872477
4.583645,58.052961,312.959153,1434.999208
4.593645,57.894857,313.530193,1438.131656
4.603645,57.736545,314.099736,1441.269807
4.613645,57.548116,314.667630,1444.413645
4.623645,57.339873,315.233610,1447.563153
4.633645,57.131386,315.797511,1450.718310
4.643645,56.922663,316.359325,1453.879096
4.653645,56.713706,316.919096,1457.045490
4.663645,56.504519,317.476823,1460.217471
