# Time (s), acceleration Magnitude (m/s²), Vz (m/s), Z (m)
0.000000,71.197573,0.000000,697.000000
0.005760,71.205985,0.409156,697.002357
0.011520,71.214358,0.818361,697.007070
0.021520,71.228799,1.528858,697.018807
0.031520,71.243087,2.239499,697.037648
0.041520,71.257262,2.950282,697.063597
0.051520,71.271320,3.661205,697.096655
0.061520,71.285171,4.372268,697.136822
0.071520,71.298893,5.083468,697.184101
0.081520,71.312458,5.794804,697.238492
0.091520,71.325942,6.506276,697.299998
0.101520,71.339319,7.217881,697.368618
0.111520,71.352512,7.929619,697.444356
0.121520,71.365571,8.641488,697.527211
0.131520,71.378503,9.353486,697.617186
0.141520,71.391289,10.065613,697.714282
0.151520,71.403978,10.777866,697.818499
0.161520,71.416519,11.490246,697.929840
0.171520,71.428903,12.202750,698.048305
0.181520,71.441181,12.915377,698.173895
0.191520,71.453254,13.628125,698.306613
0.201520,71.465203,14.340993,698.446458
0.211520,71.477051,15.053980,698.593433
0.221520,71.488797,15.767085,698.747539
0.231520,71.500440,16.480306,698.908775
0.241520,71.512000,17.193643,699.077145
0.251520,71.523282,17.907094,699.252649
0.261520,71.534430,18.620657,699.435287
0.271520,71.545477,19.334331,699.625062
0.281520,71.556425,20.048114,699.821974
0.291520,71.567284,20.762006,700.026025
0.301520,71.578046,21.476006,700.237215
0.311520,71.588523,22.190111,700.455546
0.321520,71.598870,22.904321,700.681018
0.331520,71.609119,23.618633,700.913633
0.341520,71.619275,24.333048,701.153391
0.351520,71.629333,25.047563,701.400294
0.361520,71.639293,25.762177,701.654343
0.371520,71.648963,26.476890,701.915538
0.381520,71.658509,27.191699,702.183881
0.391520,71.667958,27.906602,702.459372
0.401520,71.677308,28.621600,702.742013
0.411520,71.686561,29.336689,703.031805
0.421520,71.695717,30.051871,703.328747
0.431520,71.704575,30.767143,703.632842
0.441520,71.713312,31.482502,703.944091
0.451520,71.721951,32.197948,704.262493
0.461520,71.730492,32.913480,704.588050
0.471520,71.738935,33.629097,704.920763
0.481520,71.747277,34.344797,705.260632
0.491520,71.755314,35.060579,705.607659
0.501520,71.763235,35.776440,705.961844
0.511520,71.771058,36.492380,706.323188
0.521520,71.778783,37.208398,706.691692
0.531520,71.786404,37.924492,707.067356
0.541520,71.793923,38.640662,707.450182
0.551520,71.801134,39.356905,707.840170
0.561520,71.808233,40.073219,708.237321
0.571520,71.815233,40.789604,708.641635
0.581520,71.822125,41.506058,709.053113
0.591520,71.828916,42.222580,709.471756
0.601520,71.835607,42.939169,709.897565
0.611520,71.841942,43.655824,710.330540
0.621520,71.848167,44.372541,710.770682
0.623747,71.849538,44.532128,710.869656
0.624975,71.857100,44.620161,710.924470
0.626203,71.857903,44.708195,710.979392
0.628660,71.859423,44.884266,711.089453
0.631117,71.860856,45.060340,711.199946
0.633574,71.862370,45.236418,711.310872
0.643574,71.868418,45.953120,711.766819
0.653574,71.874448,46.669883,712.229934
0.663574,71.880239,47.386702,712.700217
0.673574,71.886230,48.103573,713.177668
0.683574,71.892063,48.820493,713.662289
0.693574,71.897572,49.537454,714.154078
0.703574,71.902960,50.254452,714.653038
0.713574,71.908533,50.971480,715.159167
0.723574,71.913841,51.688537,715.672468
0.733574,71.919083,52.405614,716.192938
0.743574,71.924350,53.122707,716.720580
0.753574,71.929645,53.839811,717.255392
0.763574,71.934914,54.556922,717.797376
0.773574,71.939935,55.274033,718.346531
0.783574,71.944776,55.991135,718.902857
0.793574,71.949655,56.708223,719.466354
0.803574,71.954545,57.425290,720.037021
0.813574,71.959393,58.142330,720.614859
0.823574,71.964190,58.859336,721.199868
0.833574,71.969035,59.576301,721.792046
0.843574,71.973820,60.293218,722.391393
0.853574,71.978358,61.010076,722.997910
0.863574,71.982909,61.726868,723.611595
0.873574,71.987428,62.443583,724.232447
0.883574,71.991816,63.160213,724.860466
0.893574,71.996357,63.876749,725.495651
0.903574,72.000803,64.593181,726.138001
0.913574,72.005452,65.309499,726.787514
0.923574,72.009950,66.025694,727.444190
0.933574,72.014273,66.741752,728.108028
0.943574,72.018623,67.457662,728.779025
0.953574,72.023033,68.173412,729.457180
0.963574,72.027324,68.888989,730.142493
0.973574,72.031708,69.604381,730.834960
0.983574,72.036133,70.319575,731.534580
0.993574,72.040549,71.034558,732.241350
1.003574,72.045065,71.749315,732.955270
1.013574,72.049530,72.463833,733.676336
1.023574,72.053879,73.178097,734.404546
1.033574,72.058214,73.892090,735.139897
1.043574,72.062549,74.605797,735.882387
1.053574,72.066987,75.319202,736.632012
1.063574,72.071525,76.032291,737.388770
1.073574,72.075952,76.745047,738.152657
1.083574,72.080631,77.457455,738.923669
1.093574,72.085200,78.169499,739.701804
1.103574,72.089573,78.881160,740.487058
1.113574,72.094100,79.592423,741.279426
1.123574,72.098458,80.303269,742.078905
1.133574,72.103061,81.013682,742.885490
1.143574,72.107678,81.723644,743.699177
1.153574,72.112618,82.433139,744.519962
1.163574,72.117651,83.142152,745.347838
1.173574,72.122585,83.850665,746.182803
1.183574,72.127332,84.558661,747.024850
1.193574,72.132010,85.266127,747.873974
1.203574,72.136738,85.973046,748.730171
1.213574,72.141352,86.679408,749.593433
1.223574,72.146119,87.385200,750.463757
1.233574,72.150735,88.090411,751.341136
1.243574,72.155373,88.795027,752.225563
1.253574,72.160076,89.499038,753.117034
1.263574,72.164777,90.202429,754.015542
1.273574,72.169087,90.905189,754.921081
1.283574,72.173330,91.607309,755.833644
1.293574,72.177578,92.308788,756.753225
1.303574,72.181399,93.009623,757.679817
1.313574,72.185221,93.709816,758.613415
1.323574,72.188965,94.409371,759.554011
1.333574,72.192243,95.108291,760.501600
1.343574,72.195478,95.806587,761.456175
1.353574,72.198352,96.504266,762.417730
1.363574,72.200926,97.201342,763.386258
1.373574,72.203226,97.897829,764.361755
1.383574,72.204460,98.593743,765.344213
1.393574,72.205508,99.289101,766.333628
1.403574,72.206026,99.983924,767.329993
1.413574,72.206180,100.678238,768.333305
1.423574,72.205858,101.372069,769.343557
1.433574,72.205001,102.065446,770.360744
1.443574,72.203562,102.758401,771.384864
1.453574,72.201676,103.450966,772.415911
1.463574,72.199127,104.143177,773.453882
1.473574,72.196058,104.835070,774.498774
1.483574,72.192272,105.526684,775.550583
1.493574,72.187494,106.218056,776.609307
1.503574,72.181960,106.909224,777.674943
1.513574,72.175752,107.600228,778.747490
1.523574,72.168748,108.291112,779.826947
1.533574,72.161286,108.981917,780.913312
1.543574,72.152943,109.672686,782.006585
1.553574,72.143873,110.363462,783.106766
1.563574,72.134159,111.054287,784.213855
1.573574,72.123780,111.745202,785.327852
1.583574,72.112584,112.436247,786.448759
1.593574,72.100758,113.127463,787.576578
1.603574,72.088191,113.818886,788.711309
1.613574,72.074585,114.510551,789.852956
1.623574,72.060419,115.202491,791.001521
1.633574,72.045757,115.894738,792.157007
1.643574,72.030238,116.587323,793.319417
1.653574,72.014412,117.280273,794.488755
1.663574,71.998035,117.973614,795.665024
1.673574,71.981173,118.667368,796.848228
1.683574,71.963871,119.361554,798.038373
1.693574,71.946186,120.056190,799.235461
1.703574,71.927948,120.751291,800.439498
1.713574,71.909627,121.446871,801.650488
1.723574,71.890408,122.142935,802.868437
1.733574,71.870990,122.839485,804.093349
1.743574,71.851510,123.536521,805.325228
1.753574,71.831877,124.234041,806.564081
1.763574,71.812148,124.932041,807.809911
1.773574,71.792514,125.630510,809.062723
1.783574,71.773146,126.329435,810.322523
1.793574,71.753776,127.028800,811.589313
1.803574,71.734469,127.728586,812.863100
1.813574,71.715326,128.428774,814.143886
1.823574,71.696507,129.129345,815.431677
1.833574,71.677430,129.830276,816.726475
1.843574,71.658406,130.531542,818.028283
1.853574,71.639643,131.233115,819.337106
1.863574,71.621048,131.934970,820.652947
1.873574,71.602688,132.637078,821.975807
1.883574,71.584768,133.339413,823.305689
1.893574,71.566880,134.041944,824.642596
1.903574,71.549392,134.744641,825.986528
1.913574,71.532167,135.447474,827.337489
1.923574,71.515308,136.150412,828.695478
1.933574,71.498495,136.853422,830.060497
1.943574,71.482085,137.556472,831.432547
1.953574,71.465488,138.259528,832.811627
1.963574,71.449159,138.962555,834.197737
1.973574,71.433186,139.665521,835.590878
1.983574,71.417410,140.368393,836.991047
1.993574,71.401914,141.071137,838.398245
2.003574,71.386679,141.773722,839.812470
2.013574,71.371742,142.476115,841.233719
2.023574,71.356926,143.178281,842.661991
2.033574,71.342414,143.880188,844.097284
2.043574,71.328038,144.581802,845.539594
2.053574,71.314031,145.283091,846.988919
2.063574,71.299800,145.984022,848.445254
2.073574,71.285708,146.684560,849.908598
2.083574,71.271851,147.384673,851.378944
2.093574,71.258169,148.084331,852.856290
2.103574,71.244865,148.783504,854.340629
2.113574,71.231640,149.482165,855.831958
2.123574,71.218439,150.180286,857.330271
2.133574,71.205793,150.877843,858.835562
2.143574,71.193018,151.574811,860.347826
2.153574,71.180579,152.271171,861.867056
2.163574,71.168086,152.966902,863.393247
2.173574,71.155453,153.661989,864.926392
2.183574,71.142710,154.356415,866.466485
2.193574,71.129884,155.050170,868.013518
2.203574,71.116956,155.743247,869.567486
2.213574,71.104168,156.435643,871.128381
2.223574,71.091068,157.127360,872.696196
2.233574,71.077815,157.818405,874.270926
2.243574,71.064284,158.508786,875.852562
2.253574,71.050383,159.198522,877.441099
2.263574,71.035956,159.887637,879.036531
2.273574,71.021105,160.576158,880.638850
2.283574,71.005510,161.264110,882.248052
2.293574,70.989414,161.951523,883.864130
2.303574,70.972815,162.638428,885.487081
2.313574,70.955367,163.324865,887.116897
2.323574,70.936876,164.010869,888.753576
2.333574,70.917317,164.696479,890.397114
2.343574,70.896867,165.381736,892.047505
2.353574,70.875527,166.066682,893.704747
2.363574,70.853369,166.751361,895.368838
2.373574,70.830721,167.435814,897.039774
2.383574,70.807114,168.120079,898.717553
2.393574,70.782677,168.804197,900.402175
2.403574,70.757524,169.488213,902.093637
2.413574,70.731347,170.172168,903.791939
2.423574,70.704474,170.856104,905.497080
2.433574,70.676827,171.540056,907.209061
2.443574,70.648429,172.224059,908.927881
2.453574,70.619481,172.908145,910.653542
2.463574,70.589946,173.592343,912.386045
2.473574,70.559916,174.276678,914.125390
2.483574,70.528819,174.961166,915.871579
2.493574,70.497317,175.645820,917.624614
2.503574,70.465575,176.330652,919.384496
2.513574,70.433711,177.015670,921.151227
2.523574,70.401614,177.700878,922.924810
2.533574,70.369382,178.386276,924.705245
2.543574,70.337325,179.071856,926.492536
2.553574,70.305323,179.757612,928.286683
2.563574,70.273243,180.443531,930.087689
2.573574,70.241264,181.129594,931.895554
2.583574,70.209561,181.815783,933.710281
2.593574,70.178036,182.502074,935.531870
2.603574,70.146821,183.188444,937.360323
2.613574,70.115129,183.874860,939.195639
2.623574,70.083597,184.561290,941.037820
2.633574,70.051730,185.247697,942.886865
2.643574,70.019483,185.934043,944.742774
2.653574,69.987399,186.620291,946.605546
2.663574,69.955508,187.306407,948.475179
2.673574,69.923856,187.992351,950.351673
2.683574,69.892423,188.678088,952.235025
2.693574,69.861246,189.363576,954.125234
2.703574,69.830289,190.048779,956.022296
2.713574,69.799443,190.733656,957.926208
2.723574,69.768768,191.418168,959.836968
2.733574,69.738322,192.102278,961.754571
2.743574,69.708105,192.785949,963.679012
2.753574,69.678090,193.469144,965.610288
2.763574,69.648175,194.151829,967.548393
2.773574,69.618542,194.833971,969.493323
2.783574,69.588780,195.515539,971.445071
2.793574,69.558987,196.196501,973.403631
2.803574,69.529215,196.876831,975.368999
2.813574,69.499633,197.556505,977.341166
2.823574,69.470017,198.235505,979.320126
2.833574,69.440607,198.913816,981.305874
2.843574,69.411244,199.591428,983.298400
2.853574,69.381858,200.268334,985.297700
2.863574,69.352218,200.944533,987.303765
2.873574,69.322463,201.620026,989.316588
2.883574,69.292448,202.294820,991.336163
2.893574,69.262141,202.968929,993.362482
2.903574,69.231440,203.642371,995.395539
2.913574,69.199487,204.315162,997.435328
2.923574,69.166502,204.987324,999.481840
2.933574,69.133074,205.658884,1001.535072
2.943574,69.098778,206.329875,1003.595016
2.953574,69.063728,207.000335,1005.661668
2.963574,69.027582,207.670301,1007.735021
2.973574,68.990474,208.339813,1009.815072
2.983574,68.952515,209.008910,1011.901816
2.993574,68.913474,209.677635,1013.995249
3.003574,68.873541,210.346030,1016.095368
3.013574,68.832592,211.014135,1018.202169
3.023574,68.790666,211.681987,1020.315650
3.033574,68.747853,212.349624,1022.435808
3.043574,68.703836,213.017075,1024.562642
3.053574,68.659135,213.684369,1026.696149
3.063574,68.613687,214.351532,1028.836328
3.073574,68.567725,215.018585,1030.983179
3.083574,68.521427,215.685546,1033.136700
3.093574,68.474753,216.352427,1035.296890
3.103574,68.427864,217.019236,1037.463748
3.113574,68.380775,217.685977,1039.637274
3.123574,68.333542,218.352645,1041.817467
3.133574,68.286253,219.019233,1044.004327
3.143574,68.239215,219.685731,1046.197852
3.153574,68.192084,220.352122,1048.398041
3.163574,68.144810,221.018385,1050.604894
3.173574,68.097310,221.684493,1052.818408
3.183574,68.050035,222.350416,1055.038583
3.193574,68.003047,223.016125,1057.265416
3.203574,67.956179,223.681589,1059.498905
3.213574,67.909128,224.346780,1061.739047
3.223574,67.861735,225.011671,1063.985839
3.233574,67.814659,225.676232,1066.239279
3.243574,67.767810,226.340426,1068.499363
3.253574,67.721111,227.004209,1070.766086
3.263574,67.674590,227.667540,1073.039445
3.273574,67.627897,228.330376,1075.319435
3.283574,67.581338,228.992677,1077.606051
3.293574,67.534582,229.654400,1079.899287
3.303574,67.487983,230.315505,1082.199137
3.313574,67.441459,230.975957,1084.505595
3.323574,67.394937,231.635720,1086.818654
3.333574,67.348479,232.294764,1089.138307
3.343574,67.302252,232.953061,1091.464547
3.353574,67.256178,233.610589,1093.797366
3.363574,67.210110,234.267330,1096.136756
3.373574,67.163775,234.923268,1098.482710
3.383574,67.117494,235.578394,1100.835219
3.393574,67.070820,236.232700,1103.194275
3.403574,67.023962,236.886185,1105.559870
3.413574,66.977164,237.538859,1107.931996
3.423574,66.939182,238.190774,1110.310645
3.433574,66.900747,238.841998,1112.695809
3.443574,66.861804,239.492570,1115.087482
3.453574,66.822314,240.142508,1117.485658
3.463574,66.782101,240.791836,1119.890330
3.473574,66.741699,241.440592,1122.301493
3.483574,66.700656,242.088825,1124.719141
3.493574,66.658380,242.736576,1127.143268
3.503574,66.614984,243.383879,1129.573870
3.513574,66.570809,244.030771,1132.010944
3.523574,66.525713,244.677292,1134.454485
3.533574,66.479900,245.323481,1136.904489
3.543574,66.433335,245.969375,1139.360953
3.553574,66.386190,246.615005,1141.823875
3.563574,66.338490,247.260398,1144.293253
3.573574,66.290365,247.905577,1146.769083
3.583574,66.241928,248.550562,1149.251364
3.593574,66.193398,249.195367,1151.740093
3.603574,66.144309,249.839997,1154.235270
3.613574,66.095128,250.484454,1156.736893
3.623574,66.046044,251.128733,1159.244959
3.633574,65.997230,251.772825,1161.759467
3.643574,65.948516,252.416720,1164.280415
3.653574,65.900109,253.060399,1166.807800
3.663574,65.851951,253.703840,1169.341622
3.673574,65.804161,254.347015,1171.881876
3.683574,65.756572,254.989897,1174.428561
3.693574,65.709373,255.632453,1176.981673
3.703574,65.662085,256.274647,1179.541209
3.713574,65.614952,256.916442,1182.107165
3.723574,65.568156,257.557799,1184.679536
3.733574,65.521564,258.198682,1187.258319
3.743574,65.475383,258.839056,1189.843508
3.753574,65.429382,259.478885,1192.435099
3.763574,65.383760,260.118137,1195.033084
3.773574,65.338292,260.756781,1197.637459
3.783574,65.293170,261.394788,1200.248218
3.793574,65.248314,262.032133,1202.865353
3.803574,65.203511,262.668795,1205.488858
3.813574,65.158658,263.304757,1208.118726
3.823574,65.113817,263.940006,1210.754951
3.833574,65.069078,264.574536,1213.397524
3.843574,65.024284,265.208348,1216.046439
3.853574,64.979350,265.841448,1218.701689
3.863574,64.934196,266.473845,1221.363266
3.873574,64.888708,267.105557,1224.031163
3.883574,64.842765,267.736601,1226.705375
3.893574,64.796057,268.367003,1229.385893
3.903574,64.748626,268.996788,1232.072713
3.913574,64.700529,269.625986,1234.765827
3.923574,64.651666,270.254630,1237.465230
3.933574,64.602139,270.882753,1240.170918
3.943574,64.526068,271.510279,1242.882883
3.953574,64.443387,272.137086,1245.601121
3.963574,64.359758,272.763127,1248.325623
3.973574,64.275239,273.388445,1251.056381
3.983574,64.189629,274.013093,1253.793389
3.993574,64.103293,274.637091,1256.536641
4.003574,64.016372,275.260436,1259.286129
4.013574,63.928920,275.883133,1262.041847
4.023574,63.841145,276.505193,1264.803790
4.033574,63.753026,277.126622,1267.571949
4.043574,63.664699,277.747416,1270.346320
4.053574,63.576209,278.367562,1273.126895
4.063574,63.487406,278.987043,1275.913669
4.073574,63.398103,279.605844,1278.706634
4.083574,63.307431,280.223958,1281.505784
4.093574,63.216701,280.841378,1284.311111
4.103574,63.126043,281.458080,1287.122609
4.113574,63.035489,282.074031,1289.940270
4.123574,62.944958,282.689187,1292.764087
4.133574,62.854563,283.303510,1295.594051
4.143574,62.764197,283.916964,1298.430154
4.153574,62.673490,284.529506,1301.272387
4.163574,62.582922,285.141092,1304.120741
4.173574,62.492377,285.751683,1306.975206
4.183574,62.401915,286.361246,1309.835771
4.193574,62.311515,286.969749,1312.702427
4.203574,62.221087,287.577161,1315.575162
4.213574,62.130635,288.183456,1318.453966
4.223574,62.040139,288.788615,1321.338828
4.233574,61.949322,289.392625,1324.229735
4.243574,61.858160,289.995476,1327.126676
4.253574,61.767205,290.597157,1330.029641
4.263574,61.676437,291.197662,1332.938616
4.273574,61.585129,291.796990,1335.853590
4.283574,61.493256,292.395154,1338.774552
4.293574,61.400671,292.992178,1341.701489
4.303574,61.307062,293.588087,1344.634391
4.313574,61.212350,294.182907,1347.573247
4.323574,61.116670,294.776669,1350.518046
4.333574,61.019854,295.369409,1353.468777
4.343574,60.921983,295.961163,1356.425431
4.353574,60.822999,296.551966,1359.387997
4.363574,60.722954,297.141849,1362.356467
4.373574,60.621827,297.730844,1365.330831
4.383574,60.519733,298.318978,1368.311081
4.393574,60.416836,298.906275,1371.297208
4.403574,60.313332,299.492752,1374.289204
4.413574,60.209341,300.078423,1377.287060
4.423574,60.104957,300.663296,1380.290770
4.433574,60.000323,301.247372,1383.300324
4.443574,59.885071,301.830599,1386.315714
4.445077,59.865128,301.918176,1386.769429
4.446580,59.845157,302.005728,1387.223276
4.448083,59.825206,302.093256,1387.677254
4.449586,59.805248,302.180759,1388.131364
4.451089,59.785289,302.268237,1388.585605
4.454095,59.745411,302.443118,1389.494482
4.457101,59.705532,302.617900,1390.403884
4.460107,59.665639,302.792582,1391.313812
4.463113,59.625775,302.967164,1392.224264
4.467933,59.561881,303.246866,1393.685126
4.472752,59.498026,303.526305,1395.147335
4.477572,59.434227,303.805479,1396.610890
4.482392,59.370441,304.084384,1398.075790
4.487211,59.313498,304.363034,1399.542033
4.494124,59.231755,304.762283,1401.647433
4.501037,59.150055,305.161051,1403.755591
4.507950,59.068582,305.559334,1405.866503
4.514863,58.987306,305.957114,1407.980168
4.521775,58.906275,306.354378,1410.096580
4.529820,58.812188,306.816022,1412.562995
4.537865,58.718387,307.276929,1415.033121
4.545910,58.598946,307.736993,1417.506952
4.553955,58.473561,308.196069,1419.984480
4.561999,58.348258,308.654073,1422.465697
4.570044,58.223010,309.111000,1424.950594
4.580044,58.067321,309.677475,1428.044538
4.590044,57.911609,310.242273,1431.144138
4.600044,57.739434,310.805279,1434.249377
4.610044,57.533926,311.366232,1437.360236
4.620044,57.328252,311.924917,1440.476694
4.630044,57.122377,312.481290,1443.598727
4.640044,56.916231,313.035400,1446.726313
4.650044,56.709751,313.587273,1449.859428
4.660044,56.493039,314.136856,1452.998050
