# Time (s), acceleration Magnitude (m/s²), Vz (m/s), Z (m)
0.000000,71.221779,0.000000,697.000000
0.005766,71.230234,0.408739,697.002357
0.011532,71.238652,0.817526,697.007070
0.021532,71.253169,1.526575,697.018791
0.031532,71.267554,2.235768,697.037603
0.041532,71.281852,2.945103,697.063507
0.051532,71.296043,3.654580,697.096505
0.061532,71.310026,4.364198,697.136599
0.071532,71.323889,5.073954,697.183790
0.081532,71.337582,5.783847,697.238079
0.091532,71.351080,6.493875,697.299468
0.101532,71.364490,7.204038,697.367957
0.111532,71.377784,7.914333,697.443549
0.121532,71.390946,8.624760,697.526245
0.131532,71.403986,9.335317,697.616045
0.141532,71.416827,10.046003,697.712952
0.151532,71.429584,10.756816,697.816966
0.161532,71.442223,11.467756,697.928089
0.171532,71.454708,12.178821,698.046321
0.181532,71.467088,12.890009,698.171666
0.191532,71.479238,13.601320,698.304122
0.201532,71.491275,14.312751,698.443693
0.211532,71.503226,15.024301,698.590378
0.221532,71.515077,15.735970,698.744179
0.231532,71.526829,16.447756,698.905098
0.241532,71.538481,17.159659,699.073135
0.251532,71.549867,17.871676,699.248292
0.261532,71.561126,18.583806,699.430569
0.271532,71.572287,19.296048,699.619968
0.281532,71.583352,20.008400,699.816491
0.291532,71.594319,20.720862,700.020137
0.301532,71.605198,21.433432,700.230908
0.311532,71.615797,22.146110,700.448806
0.321532,71.626269,22.858892,700.673831
0.331532,71.636645,23.571778,700.905984
0.341532,71.646925,24.284767,701.145267
0.351532,71.657115,24.997858,701.391680
0.361532,71.667209,25.711049,701.645224
0.371532,71.677017,26.424340,701.905901
0.381532,71.686702,27.137727,702.173712
0.391532,71.696292,27.851211,702.448656
0.401532,71.705788,28.564789,702.730736
0.411532,71.715189,29.278462,703.019953
0.421532,71.724496,29.992227,703.316306
0.431532,71.733509,30.706084,703.619797
0.441532,71.742405,31.420030,703.930428
0.451532,71.751204,32.134064,704.248198
0.461532,71.759908,32.848185,704.573110
0.471532,71.768517,33.562392,704.905162
0.481532,71.777032,34.276685,705.244358
0.491532,71.785246,34.991061,705.590696
0.501532,71.793344,35.705518,705.944179
0.511532,71.801347,36.420054,706.304807
0.521532,71.809255,37.134671,706.672581
0.531532,71.817068,37.849365,707.047501
0.541532,71.824782,38.564137,707.429568
0.551532,71.832187,39.278984,707.818784
0.561532,71.839484,39.993904,708.215148
0.571532,71.846686,40.708896,708.618662
0.581532,71.853793,41.423959,709.029326
0.591532,71.860797,42.139093,709.447142
0.601532,71.867702,42.854295,709.872109
0.611532,71.874255,43.569565,710.304228
0.621532,71.880703,44.284899,710.743500
0.623632,71.882045,44.435122,710.836653
0.624886,71.896997,44.524717,710.892493
0.626140,71.897909,44.614314,710.948446
0.628648,71.899450,44.793508,711.060576
0.631157,71.901123,44.972706,711.173155
0.633665,71.902538,45.151908,711.286184
0.643665,71.908844,45.866389,711.741275
0.653665,71.915004,46.580932,712.203512
0.663665,71.921019,47.295539,712.672894
0.673665,71.926916,48.010210,713.149423
0.683665,71.932608,48.724946,713.633099
0.693665,71.937969,49.439746,714.123922
0.703665,71.943158,50.154609,714.621894
0.713665,71.948199,50.869536,715.127015
0.723665,71.953232,51.584528,715.639285
0.726251,71.954437,51.769483,715.772956
0.728838,71.955662,51.954443,715.907106
0.731425,71.956988,52.139407,716.041734
0.734011,71.958026,52.324376,716.176841
0.744011,71.962856,53.039501,716.703660
0.754011,71.967537,53.754695,717.237631
0.764011,71.971958,54.469956,717.778754
0.774011,71.976091,55.185285,718.327031
0.784011,71.979895,55.900680,718.882460
0.794011,71.983737,56.616142,719.445044
0.804011,71.987265,57.331671,720.014783
0.814011,71.990865,58.047269,720.591678
0.824011,71.994290,58.762936,721.175729
0.834011,71.997526,59.478673,721.766937
0.844011,72.000694,60.194479,722.365303
0.854011,72.003618,60.910357,722.970827
0.864011,72.006231,61.626304,723.583510
0.874011,72.008641,62.342319,724.203353
0.884011,72.010999,63.058403,724.830357
0.894011,72.013237,63.774557,725.464521
0.904011,72.015383,64.490781,726.105848
0.914011,72.017357,65.207075,726.754337
0.924011,72.019267,65.923440,727.409990
0.934011,72.020913,66.639875,728.072806
0.944011,72.022176,67.356379,728.742788
0.954011,72.023430,68.072950,729.419934
0.964011,72.024291,68.789588,730.104247
0.974011,72.025370,69.506291,730.795726
0.984011,72.026319,70.223063,731.494373
0.994011,72.026961,70.939901,732.200188
1.004011,72.027602,71.656805,732.913171
1.014011,72.027909,72.373773,733.633324
1.024011,72.028058,73.090805,734.360647
1.034011,72.028028,73.807898,735.095140
1.044011,72.027667,74.525050,735.836805
1.054011,72.027393,75.242261,736.585641
1.064011,72.027011,75.959531,737.341650
1.074011,72.026484,76.676858,738.104832
1.084011,72.025869,77.394241,738.875188
1.094011,72.025150,78.111680,739.652717
1.104011,72.024000,78.829171,740.437421
1.114011,72.022810,79.546713,741.229301
1.124011,72.021419,80.264302,742.028356
1.134011,72.019949,80.981937,742.834587
1.144011,72.018351,81.699617,743.647995
1.154011,72.016738,82.417340,744.468579
1.164011,72.014805,83.135104,745.296342
1.174011,72.012977,83.852907,746.131282
1.184011,72.010770,84.570746,746.973400
1.194011,72.008366,85.288618,747.822697
1.204011,72.005930,86.006521,748.679172
1.214011,72.003203,86.724451,749.542827
1.224011,72.000608,87.442407,750.413661
1.234011,71.997698,88.160386,751.291675
1.244011,71.994751,88.878387,752.176869
1.254011,71.991686,89.596405,753.069243
1.264011,71.988559,90.314439,753.968797
1.274011,71.984876,91.032484,754.875532
1.284011,71.981131,91.750536,755.789447
1.294011,71.977324,92.468591,756.710543
1.304011,71.973569,93.186647,757.638819
1.314011,71.969551,93.904703,758.574276
1.324011,71.965428,94.622754,759.516913
1.334011,71.961246,95.340798,760.466731
1.344011,71.957116,96.058832,761.423729
1.354011,71.952650,96.776852,762.387907
1.364011,71.948168,97.494857,763.359266
1.374011,71.943697,98.212842,764.337804
1.384011,71.938558,98.930803,765.323523
1.394011,71.933436,99.648735,766.316420
1.404011,71.928117,100.366635,767.316497
1.414011,71.922832,101.084498,768.323753
1.424011,71.917395,101.802324,769.338187
1.434011,71.911870,102.520108,770.359799
1.444011,71.906231,103.237848,771.388589
1.454011,71.900503,103.955541,772.424556
1.464011,71.894582,104.673182,773.467700
1.474011,71.888760,105.390770,774.518020
1.484011,71.882711,106.108302,775.575515
1.494011,71.876308,106.825772,776.640185
1.504011,71.869709,107.543177,777.712030
1.514011,71.862879,108.260512,778.791049
1.524011,71.856067,108.977773,779.877240
1.534011,71.849162,109.694959,780.970604
1.544011,71.842054,110.412066,782.071139
1.554011,71.834933,111.129091,783.178845
1.564011,71.827745,111.846032,784.293721
1.574011,71.820406,112.562887,785.415765
1.584011,71.812943,113.279650,786.544978
1.594011,71.805440,113.996321,787.681358
1.604011,71.797611,114.712896,788.824904
1.614011,71.789337,115.429369,789.975616
1.624011,71.780936,116.145737,791.133491
1.634011,71.772517,116.861995,792.298530
1.644011,71.764024,117.578142,793.470731
1.654011,71.755332,118.294177,794.650092
1.664011,71.746610,119.010096,795.836614
1.674011,71.737699,119.725898,797.030294
1.684011,71.728708,120.441579,798.231131
1.694011,71.719608,121.157139,799.439125
1.704011,71.710338,121.872574,800.654274
1.714011,71.701035,122.587882,801.876576
1.724011,71.691106,123.303062,803.106031
1.734011,71.681041,124.018107,804.342637
1.744011,71.670802,124.733016,805.586393
1.754011,71.660558,125.447789,806.837297
1.764011,71.650135,126.162423,808.095348
1.774011,71.639573,126.876919,809.360545
1.784011,71.628869,127.591275,810.632886
1.794011,71.617993,128.305491,811.912370
1.804011,71.607010,129.019565,813.198995
1.814011,71.595938,129.733499,814.492761
1.824011,71.584644,130.447290,815.793665
1.834011,71.572950,131.160940,817.101706
1.844011,71.560852,131.874444,818.416883
1.854011,71.548599,132.587801,819.739194
1.864011,71.536317,133.301014,821.068639
1.874011,71.523771,134.014081,822.405214
1.884011,71.511072,134.727005,823.748920
1.894011,71.498230,135.439787,825.099754
1.904011,71.485285,136.152427,826.457715
1.914011,71.472094,136.864927,827.822802
1.924011,71.458672,137.577287,829.195013
1.934011,71.445114,138.289509,830.574347
1.944011,71.431316,139.001593,831.960803
1.954011,71.416872,139.713539,833.354379
1.964011,71.402358,140.425346,834.755073
1.974011,71.387773,141.137016,836.162885
1.984011,71.372896,141.848551,837.577813
1.994011,71.357857,142.559952,838.999856
2.004011,71.342639,143.271220,840.429012
2.014011,71.327103,143.982355,841.865280
2.024011,71.311596,144.693359,843.308658
2.034011,71.295913,145.404233,844.759146
2.044011,71.279889,146.114978,846.216743
2.054011,71.263890,146.825594,847.681446
2.064011,71.247159,147.536080,849.153254
2.074011,71.230199,148.246433,850.632167
2.084011,71.213227,148.956652,852.118182
2.094011,71.195935,149.666738,853.611299
2.104011,71.178533,150.376690,855.111517
2.114011,71.161073,151.086508,856.618833
2.124011,71.143434,151.796191,858.133246
2.134011,71.125535,152.505736,859.654756
2.144011,71.107590,153.215144,861.183361
2.154011,71.089639,153.924413,862.719058
2.164011,71.071381,154.633541,864.261848
2.174011,71.052670,155.342524,865.811729
2.184011,71.033490,156.051356,867.368698
2.194011,71.014342,156.760033,868.932755
2.204011,70.995021,157.468554,870.503898
2.214011,70.975616,158.176915,872.082126
2.224011,70.955974,158.885114,873.667436
2.234011,70.936292,159.593148,875.259828
2.244011,70.916534,160.301012,876.859299
2.254011,70.896557,161.008705,878.465847
2.264011,70.876529,161.716221,880.079472
2.274011,70.856282,162.423559,881.700171
2.284011,70.836054,163.130713,883.327943
2.294011,70.815689,163.837682,884.962785
2.304011,70.795233,164.544461,886.604696
2.314011,70.774461,165.251046,888.253673
2.324011,70.753496,165.957432,889.909716
2.334011,70.731888,166.663612,891.572821
2.344011,70.710285,167.369581,893.242987
2.354011,70.688354,168.075334,894.920212
2.364011,70.666532,168.780868,896.604493
2.374011,70.644416,169.486180,898.295829
2.384011,70.622365,170.191266,899.994216
2.394011,70.600003,170.896123,901.699653
2.404011,70.577473,171.600747,903.412138
2.414011,70.554718,172.305138,905.131668
2.424011,70.531792,173.009294,906.858240
2.434011,70.508769,173.713213,908.591853
2.444011,70.485543,174.416894,910.332503
2.454011,70.462213,175.120331,912.080190
2.464011,70.438674,175.823521,913.834909
2.474011,70.415009,176.526462,915.596659
2.484011,70.390619,177.229149,917.365438
2.494011,70.366005,177.931573,919.141241
2.504011,70.341287,178.633733,920.924068
2.514011,70.316371,179.335624,922.713915
2.524011,70.291436,180.037245,924.510780
2.534011,70.266259,180.738594,926.314659
2.544011,70.240885,181.439666,928.125551
2.554011,70.215431,182.140460,929.943452
2.564011,70.189800,182.840973,931.768359
2.574011,70.164047,183.541204,933.600270
2.584011,70.138126,184.241149,935.439182
2.594011,70.111899,184.940807,937.285092
2.604011,70.085438,185.640174,939.137997
2.614011,70.058909,186.339249,940.997895
2.624011,70.032131,187.038031,942.864781
2.634011,70.004736,187.736516,944.738654
2.644011,69.976320,188.434696,946.619511
2.654011,69.947553,189.132566,948.507347
2.664011,69.918620,189.830122,950.402161
2.674011,69.889330,190.527365,952.303949
2.684011,69.859561,191.224294,954.212707
2.694011,69.829417,191.920911,956.128433
2.704011,69.799044,192.617213,958.051124
2.714011,69.768371,193.313200,959.980777
2.724011,69.737660,194.008873,961.917387
2.734011,69.706706,194.704231,963.860953
2.744011,69.675434,195.399275,965.811471
2.754011,69.643930,196.094003,967.768937
2.764011,69.612228,196.788414,969.733350
2.774011,69.580401,197.482508,971.704705
2.784011,69.548072,198.176283,973.682999
2.794011,69.515036,198.869734,975.668229
2.804011,69.481879,199.562859,977.660392
2.814011,69.448495,200.255654,979.659485
2.824011,69.414983,200.948120,981.665504
2.834011,69.381275,201.640256,983.678447
2.844011,69.347233,202.332058,985.698308
2.854011,69.313055,203.023524,987.725087
2.864011,69.278674,203.714652,989.758778
2.874011,69.244091,204.405438,991.799379
2.884011,69.209386,205.095882,993.846885
2.894011,69.174372,205.785980,995.901295
2.904011,69.139199,206.475729,997.962604
2.914011,69.103341,207.165122,1000.030808
2.924011,69.067173,207.854155,1002.105905
2.934011,69.030933,208.542822,1004.187890
2.944011,68.993981,209.231118,1006.276760
2.954011,68.956881,209.919039,1008.372511
2.964011,68.919591,210.606580,1010.475140
2.974011,68.882209,211.293737,1012.584642
2.984011,68.844588,211.980508,1014.701013
2.994011,68.806598,212.666888,1016.824251
3.004011,68.768458,213.352872,1018.954350
3.014011,68.730156,214.038456,1021.091307
3.024011,68.691676,214.723637,1023.235118
3.034011,68.652823,215.408410,1025.385778
3.044011,68.613198,216.092768,1027.543284
3.054011,68.573489,216.776706,1029.707632
3.064011,68.533529,217.460217,1031.878817
3.074011,68.493399,218.143301,1034.056835
3.084011,68.453065,218.825955,1036.241682
3.094011,68.412380,219.508174,1038.433353
3.104011,68.371447,220.189955,1040.631844
3.114011,68.330402,220.871294,1042.837150
3.124011,68.289129,221.552190,1045.049268
3.134011,68.247597,222.232642,1047.268193
3.144011,68.205670,222.912645,1049.493919
3.154011,68.163555,223.592197,1051.726444
3.164011,68.120678,224.271294,1053.965762
3.174011,68.077576,224.949933,1056.211868
3.184011,68.034234,225.628111,1058.464759
3.194011,67.990378,226.305827,1060.724429
3.204011,67.946230,226.983080,1062.990874
3.214011,67.901982,227.659867,1065.264089
3.224011,67.857382,228.336190,1067.544070
3.234011,67.812580,229.012047,1069.830811
3.244011,67.767256,229.687438,1072.124309
3.254011,67.721680,230.362360,1074.424558
3.264011,67.675871,231.036814,1076.731555
3.274011,67.629817,231.710798,1079.045293
3.284011,67.583360,232.384313,1081.365769
3.294011,67.535985,233.057353,1083.692978
3.304011,67.488406,233.729915,1086.026915
3.314011,67.440561,234.401997,1088.367575
3.324011,67.392442,235.073598,1090.714953
3.334011,67.344231,235.744718,1093.069045
3.344011,67.295391,236.415355,1095.429846
3.354011,67.246283,237.085503,1097.797350
3.364011,67.196953,237.755161,1100.171554
3.374011,67.147321,238.424327,1102.552452
3.384011,67.097584,239.092997,1104.940039
3.394011,67.046987,239.761168,1107.334310
3.404011,66.995925,240.428832,1109.735261
3.414011,66.944693,241.095983,1112.142885
3.424011,66.893207,241.762619,1114.557179
3.434011,66.841554,242.428736,1116.978136
3.444011,66.794335,243.094352,1119.405752
3.454011,66.751743,243.759507,1121.840021
3.464011,66.709165,244.424232,1124.280940
3.474011,66.666415,245.088529,1126.728505
3.484011,66.623625,245.752384,1129.182709
3.494011,66.580730,246.415792,1131.643551
3.504011,66.537823,247.078751,1134.111024
3.514011,66.494905,247.741265,1136.585124
3.524011,66.451857,248.403330,1139.065848
3.534011,66.408756,249.064942,1141.553189
3.544011,66.365524,249.726096,1144.047145
3.554011,66.322194,250.386792,1146.547710
3.564011,66.278752,251.047026,1149.054879
3.574011,66.235195,251.706797,1151.568649
3.584011,66.191528,252.366102,1154.089014
3.594011,66.147830,253.024940,1156.615969
3.604011,66.103505,253.683308,1159.149511
3.614011,66.059113,254.341201,1161.689634
3.624011,66.014540,254.998619,1164.236333
3.634011,65.969887,255.655561,1166.789605
3.644011,65.925065,256.312027,1169.349443
3.654011,65.880222,256.968017,1171.915844
3.664011,65.835085,257.623530,1174.488802
3.674011,65.789921,258.278567,1177.068313
3.684011,65.744603,258.933129,1179.654371
3.694011,65.699093,259.587215,1182.246974
3.704011,65.653211,260.240826,1184.846114
3.714011,65.606949,260.893960,1187.451788
3.724011,65.560612,261.546616,1190.063992
3.734011,65.514099,262.198795,1192.682719
3.744011,65.467446,262.850497,1195.307966
3.754011,65.420648,263.501725,1197.939728
3.764011,65.373869,264.152474,1200.577999
3.774011,65.327733,264.802732,1203.222775
3.784011,65.281599,265.452480,1205.874052
3.794011,65.235397,266.101714,1208.531823
3.804011,65.188864,266.750436,1211.196085
3.814011,65.141947,267.398649,1213.866830
3.824011,65.094811,268.046357,1216.544056
3.834011,65.047508,268.693561,1219.227756
3.844011,65.000034,269.340266,1221.917925
3.854011,64.952276,269.986479,1224.614559
3.864011,64.904263,270.632206,1227.317653
3.874011,64.856031,271.277452,1230.027202
3.884011,64.807513,271.922223,1232.743201
3.894011,64.758492,272.566524,1235.465645
3.904011,64.709122,273.210357,1238.194530
3.914011,64.659561,273.853728,1240.929850
3.924011,64.609768,274.496639,1243.671603
3.934011,64.559760,275.139095,1246.419782
3.944011,64.509620,275.781097,1249.174383
3.954011,64.459415,276.422647,1251.935402
3.964011,64.400849,277.063709,1254.702834
3.974011,64.319058,277.704139,1257.476674
3.984011,64.236527,278.343797,1260.256915
3.994011,64.153776,278.982643,1263.043548
4.004011,64.070681,279.620700,1265.836565
4.014011,63.987330,280.257986,1268.635959
4.024011,63.903702,280.894483,1271.441722
4.034011,63.819792,281.530168,1274.253846
4.044011,63.735603,282.165030,1277.072323
4.054011,63.651152,282.799068,1279.897144
4.064011,63.566231,283.432275,1282.728301
4.074011,63.480945,284.064641,1285.565786
4.084011,63.395404,284.696154,1288.409591
4.094011,63.309567,285.326807,1291.259707
4.104011,63.223445,285.956591,1294.116124
4.114011,63.136959,286.585498,1296.978836
4.124011,63.050193,287.213519,1299.847831
4.134011,62.963150,287.840647,1302.723103
4.144011,62.875726,288.466877,1305.604641
4.154011,62.787634,289.092198,1308.492437
4.164011,62.699284,289.716605,1311.386482
4.174011,62.610588,290.340092,1314.286766
4.184011,62.521567,290.962656,1317.193281
4.194011,62.432178,291.584295,1320.106017
4.204011,62.342512,292.205006,1323.024964
4.214011,62.252451,292.824789,1325.950114
4.224011,62.162015,293.443642,1328.881456
4.234011,62.070933,294.061564,1331.818983
4.244011,61.979369,294.678555,1334.762685
4.254011,61.887374,295.294614,1337.712551
4.264011,61.794966,295.909744,1340.668574
4.274011,61.701679,296.523946,1343.630743
4.284011,61.607420,297.137227,1346.599050
4.294011,61.512677,297.749592,1349.573485
4.304011,61.417467,298.361040,1352.554038
4.314011,61.321795,298.971571,1355.540702
4.322028,61.244829,299.460354,1357.939468
4.330045,61.167709,299.948541,1360.342150
4.338062,61.090414,300.436132,1362.748743
4.346079,61.012884,300.923126,1365.159243
4.354096,60.935221,301.409519,1367.573644
4.362112,60.857304,301.895310,1369.991943
4.371715,60.763710,302.476400,1372.893751
4.381318,60.669638,303.056613,1375.801135
4.390921,60.575324,303.635943,1378.714087
4.400523,60.480718,304.214381,1381.632597
4.410126,60.385868,304.791923,1384.556658
4.419729,60.290752,305.368561,1387.486261
4.429729,60.191363,305.968085,1390.542945
4.439729,60.091705,306.566614,1393.605619
4.447932,59.986991,307.056779,1396.122514
4.449211,59.970600,307.133099,1396.515175
4.450489,59.954221,307.209398,1396.907934
4.451768,59.937856,307.285676,1397.300791
4.453047,59.921460,307.361933,1397.693745
4.454325,59.905072,307.438169,1398.086797
4.456883,59.872295,307.590578,1398.873193
4.459440,59.839483,307.742902,1399.659978
4.461997,59.806692,307.895141,1400.447153
4.464554,59.773866,308.047294,1401.234716
4.469167,59.714654,308.321522,1402.656246
4.473780,59.655413,308.595472,1404.079040
4.478392,59.596122,308.869144,1405.503098
4.483005,59.536831,309.142538,1406.928416
4.487617,59.477491,309.415653,1408.354996
4.494633,59.387178,309.830506,1410.527140
4.501648,59.296794,310.244711,1412.702192
4.508664,59.206328,310.658267,1414.880148
4.515679,59.117910,311.071179,1417.061003
4.522695,59.037959,311.483482,1419.244753
4.532171,58.929887,312.039474,1422.199029
4.541647,58.821279,312.594423,1425.158568
4.551123,58.711863,313.148312,1428.123361
4.560599,58.602322,313.701129,1431.093398
4.570075,58.492555,314.252876,1434.068668
4.579551,58.351616,314.803435,1437.049162
4.589551,58.195954,315.382959,1440.200095
4.599551,58.039894,315.960868,1443.356816
4.609551,57.883424,316.537180,1446.519307
4.619551,57.726527,317.111942,1449.687554
