# Time (s), acceleration Magnitude (m/s²), Vz (m/s), Z (m)
0.000000,71.221574,0.000000,697.000000
0.005766,71.229999,0.408734,697.002357
0.011532,71.238388,0.817516,697.007070
0.021532,71.252853,1.526549,697.018791
0.031532,71.267178,2.235724,697.037602
0.041532,71.281376,2.945042,697.063506
0.051532,71.295461,3.654500,697.096504
0.061532,71.309342,4.364097,697.136597
0.071532,71.323095,5.073832,697.183786
0.081532,71.336670,5.783703,697.238074
0.091532,71.350107,6.493708,697.299461
0.101532,71.363494,7.203846,697.367949
0.111532,71.376698,7.914117,697.443539
0.121532,71.389768,8.624519,697.526232
0.131532,71.402712,9.335050,697.616030
0.141532,71.415480,10.045709,697.712933
0.151532,71.428177,10.756495,697.816944
0.161532,71.440726,11.467407,697.928064
0.171532,71.453118,12.178442,698.046293
0.181532,71.465404,12.889600,698.171633
0.191532,71.477473,13.600880,698.304086
0.201532,71.489429,14.312279,698.443652
0.211532,71.501285,15.023797,698.590332
0.221532,71.513038,15.735432,698.744128
0.231532,71.524691,16.447183,698.905041
0.241532,71.536253,17.159050,699.073072
0.251532,71.547544,17.871031,699.248222
0.261532,71.558700,18.583124,699.430493
0.271532,71.569757,19.295327,699.619885
0.281532,71.580715,20.007639,699.816400
0.291532,71.591581,20.720060,700.020039
0.301532,71.602353,21.432589,700.230802
0.311532,71.612840,22.145224,700.448691
0.321532,71.623199,22.857962,700.673707
0.331532,71.633459,23.570803,700.905851
0.341532,71.643626,24.283746,701.145124
0.351532,71.653696,24.996789,701.391526
0.361532,71.663669,25.709932,701.645060
0.371532,71.673353,26.423173,701.905725
0.381532,71.682912,27.136510,702.173523
0.391532,71.692375,27.849941,702.448456
0.401532,71.701740,28.563466,702.730523
0.411532,71.711008,29.277083,703.019725
0.421532,71.720179,29.990793,703.316065
0.431532,71.729055,30.704592,703.619542
0.441532,71.737808,31.418479,703.930157
0.451532,71.746464,32.132453,704.247912
0.461532,71.755023,32.846512,704.572806
0.471532,71.763485,33.560656,704.904842
0.481532,71.771847,34.274883,705.244020
0.491532,71.779904,34.989193,705.590340
0.501532,71.787846,35.703582,705.943804
0.511532,71.795690,36.418049,706.304412
0.521532,71.803437,37.132594,706.672165
0.531532,71.811081,37.847216,707.047064
0.541532,71.818624,38.561913,707.429110
0.551532,71.825858,39.276684,707.818303
0.561532,71.832982,39.991526,708.214644
0.571532,71.840007,40.706439,708.618133
0.581532,71.846926,41.421421,709.028773
0.591532,71.853745,42.136471,709.446562
0.601532,71.860464,42.851589,709.871503
0.611532,71.866827,43.566772,710.303594
0.621532,71.873082,44.282018,710.742838
0.623641,71.874387,44.432862,710.836382
0.624869,71.884775,44.520671,710.891084
0.626098,71.885551,44.608481,710.945893
0.628555,71.886961,44.784103,711.055727
0.631013,71.888422,44.959729,711.165992
0.633470,71.890048,45.135359,711.276690
0.643470,71.895925,45.850114,711.731617
0.653470,71.901891,46.564929,712.193692
0.663470,71.908001,47.279802,712.662916
0.673470,71.913809,47.994727,713.139288
0.683470,71.919590,48.709700,713.622810
0.693470,71.925128,49.424716,714.113483
0.703470,71.930480,50.139767,714.611305
0.713470,71.936012,50.854849,715.116278
0.723470,71.941216,51.569960,715.628402
0.726315,71.942914,51.773424,715.775417
0.729160,71.944247,51.976891,715.923010
0.732006,71.945661,52.180359,716.071182
0.734851,71.947127,52.383828,716.219933
0.744851,71.952519,53.098977,716.747347
0.754851,71.957626,53.814139,717.281913
0.764851,71.962836,54.529306,717.823630
0.774851,71.967666,55.244473,718.372499
0.784851,71.972456,55.959633,718.928520
0.794851,71.977161,56.674778,719.491692
0.804851,71.981978,57.389905,720.062015
0.814851,71.986655,58.105007,720.639490
0.824851,71.991293,58.820078,721.224115
0.834851,71.995938,59.535111,721.815891
0.844851,72.000534,60.250100,722.414817
0.854851,72.004935,60.965038,723.020893
0.864851,72.009093,61.679916,723.634118
0.874851,72.013531,62.394727,724.254491
0.884851,72.017596,63.109463,724.882012
0.894851,72.021678,63.824116,725.516680
0.904851,72.025946,64.538678,726.158494
0.914851,72.030085,65.253144,726.807453
0.924851,72.034435,65.967503,727.463557
0.934851,72.038346,66.681750,728.126803
0.944851,72.042210,67.395871,728.797191
0.954851,72.045952,68.109856,729.474720
0.964851,72.049922,68.823695,730.159388
0.974851,72.054041,69.537378,730.851193
0.984851,72.057974,70.250896,731.550135
0.994851,72.062014,70.964237,732.256211
1.004851,72.066180,71.677388,732.969419
1.014851,72.070118,72.390338,733.689758
1.024851,72.073781,73.103076,734.417225
1.034851,72.077653,73.815588,735.151818
1.044851,72.081399,74.527864,735.893536
1.054851,72.085181,75.239892,736.642375
1.064851,72.088985,75.951662,737.398333
1.074851,72.092771,76.663161,738.161407
1.084851,72.096592,77.374380,738.931595
1.094851,72.100444,78.085307,739.708894
1.104851,72.103903,78.795930,740.493300
1.114851,72.107467,79.506237,741.284811
1.124851,72.110802,80.216216,742.083424
1.134851,72.114373,80.925858,742.889135
1.144851,72.117706,81.635152,743.701940
1.154851,72.121166,82.344090,744.521836
1.164851,72.124505,83.052662,745.348820
1.174851,72.127779,83.760861,746.182888
1.184851,72.130807,84.468676,747.024036
1.194851,72.133741,85.176100,747.872261
1.204851,72.136593,85.883125,748.727557
1.214851,72.139280,86.589746,749.589922
1.224851,72.141853,87.295958,750.459351
1.234851,72.144441,88.001757,751.335840
1.244851,72.146696,88.707139,752.219384
1.254851,72.149028,89.412103,753.109981
1.264851,72.150917,90.116647,754.007625
1.274851,72.152553,90.820770,754.912312
1.284851,72.153998,91.524473,755.824039
1.294851,72.155202,92.227758,756.742801
1.304851,72.156250,92.930629,757.668593
1.314851,72.157061,93.633091,758.601412
1.324851,72.157841,94.335151,759.541253
1.334851,72.158104,95.036819,760.488113
1.344851,72.158096,95.738101,761.441988
1.354851,72.157994,96.439009,762.402874
1.364851,72.157408,97.139554,763.370767
1.374851,72.156620,97.839750,764.345664
1.384851,72.155066,98.539611,765.327561
1.394851,72.153183,99.239149,766.316455
1.404851,72.150709,99.938380,767.312343
1.414851,72.148156,100.637323,768.315222
1.424851,72.145008,101.335999,769.325089
1.434851,72.141584,102.034428,770.341941
1.444851,72.137667,102.732633,771.365777
1.454851,72.133270,103.430634,772.396593
1.464851,72.128522,104.128455,773.434389
1.474851,72.123307,104.826119,774.479162
1.484851,72.117586,105.523649,775.530911
1.494851,72.111109,106.221069,776.589634
1.504851,72.103994,106.918401,777.655332
1.514851,72.096474,107.615668,778.728002
1.524851,72.088492,108.312894,779.807645
1.534851,72.080013,109.010105,780.894260
1.544851,72.071053,109.707323,781.987847
1.554851,72.061696,110.404573,783.088407
1.564851,72.051837,111.101877,784.195939
1.574851,72.041540,111.799258,785.310444
1.584851,72.030855,112.496736,786.431924
1.594851,72.019765,113.194333,787.560379
1.604851,72.007963,113.892066,788.695811
1.614851,71.995574,114.589950,789.838221
1.624851,71.982733,115.288001,790.987611
1.634851,71.969561,115.986232,792.143982
1.644851,71.956158,116.684660,793.307336
1.654851,71.942407,117.383296,794.477676
1.664851,71.928259,118.082151,795.655003
1.674851,71.913864,118.781232,796.839320
1.684851,71.899367,119.480547,798.030628
1.694851,71.884528,120.180102,799.228931
1.704851,71.869488,120.879899,800.434231
1.714851,71.854300,121.579941,801.646530
1.724851,71.838445,122.280225,802.865831
1.734851,71.822514,122.980747,804.092135
1.744851,71.806650,123.681503,805.325446
1.754851,71.790516,124.382490,806.565766
1.764851,71.774385,125.083701,807.813097
1.774851,71.758285,125.785127,809.067441
1.784851,71.742217,126.486759,810.328800
1.794851,71.725925,127.188585,811.597177
1.804851,71.709816,127.890594,812.872573
1.814851,71.694007,128.592771,814.154989
1.824851,71.677938,129.295104,815.444428
1.834851,71.661684,129.997573,816.740892
1.844851,71.645409,130.700160,818.044380
1.854851,71.629291,131.402845,819.354895
1.864851,71.613410,132.105611,820.672437
1.874851,71.597496,132.808440,821.997008
1.884851,71.581568,133.511310,823.328606
1.894851,71.565911,134.214199,824.667234
1.904851,71.550639,134.917088,826.012890
1.914851,71.535174,135.619956,827.365576
1.924851,71.519923,136.322778,828.725289
1.934851,71.504917,137.025534,830.092031
1.944851,71.489734,137.728197,831.465800
1.954851,71.474782,138.430745,832.846595
1.964851,71.459611,139.133151,834.234414
1.974851,71.444519,139.835391,835.629257
1.984851,71.429801,140.537440,837.031121
1.994851,71.415152,141.239276,838.440005
2.004851,71.400722,141.940874,839.855906
2.014851,71.386263,142.642210,841.278822
2.024851,71.372171,143.343260,842.708749
2.034851,71.357914,144.043999,844.145686
2.044851,71.343933,144.744403,845.589628
2.054851,71.330023,145.444451,847.040573
2.064851,71.315912,146.144116,848.498516
2.074851,71.301733,146.843375,849.963454
2.084851,71.287793,147.542206,851.435382
2.094851,71.273777,148.240588,852.914296
2.104851,71.260006,148.938502,854.400192
2.114851,71.246313,149.635931,855.893065
2.124851,71.232517,150.332857,857.392909
2.134851,71.218823,151.029266,858.899720
2.144851,71.205211,151.725143,860.413493
2.154851,71.191573,152.420479,861.934221
2.164851,71.177856,153.115264,863.461900
2.174851,71.163643,153.809489,864.996525
2.184851,71.149225,154.503146,866.538088
2.194851,71.134633,155.196233,868.086586
2.204851,71.119954,155.888750,869.642011
2.214851,71.104940,156.580702,871.204359
2.224851,71.089928,157.272094,872.773623
2.234851,71.074303,157.962936,874.349799
2.244851,71.058439,158.653239,875.932880
2.254851,71.042319,159.343017,877.522862
2.264851,71.025665,160.032289,879.119739
2.274851,71.008599,160.721074,880.723506
2.284851,70.990804,161.409394,882.334159
2.294851,70.972853,162.097274,883.951692
2.304851,70.954144,162.784742,885.576103
2.314851,70.934831,163.471825,887.207386
2.324851,70.914463,164.158552,888.845538
2.334851,70.893182,164.844951,890.490556
2.344851,70.871282,165.531051,892.142436
2.354851,70.848661,166.216886,893.801176
2.364851,70.825298,166.902488,895.466773
2.374851,70.801266,167.587890,897.139225
2.384851,70.776632,168.273123,898.818530
2.394851,70.751191,168.958219,900.504687
2.404851,70.725429,169.643204,902.197694
2.414851,70.699195,170.328102,903.897551
2.424851,70.672717,171.012929,905.604256
2.434851,70.645610,171.697707,907.317809
2.444851,70.618117,172.382458,909.038210
2.454851,70.590120,173.067202,910.765459
2.464851,70.561597,173.751956,912.499554
2.474851,70.532669,174.436735,914.240498
2.484851,70.502908,175.121546,915.988289
2.494851,70.472821,175.806397,917.742929
2.504851,70.442550,176.491293,919.504417
2.514851,70.411997,177.176237,921.272755
2.524851,70.381355,177.861229,923.047942
2.534851,70.350697,178.546268,924.829979
2.544851,70.319952,179.231348,926.618868
2.554851,70.289035,179.916459,928.414607
2.564851,70.258177,180.601591,930.217197
2.574851,70.227331,181.286730,932.026638
2.584851,70.196549,181.971859,933.842931
2.594851,70.165853,182.656960,935.666075
2.604851,70.134702,183.342012,937.496070
2.614851,70.103436,184.026987,939.332915
2.624851,70.072215,184.711860,941.176610
2.634851,70.040783,185.396605,943.027152
2.644851,70.009336,186.081192,944.884541
2.654851,69.977895,186.765592,946.748775
2.664851,69.946676,187.449777,948.619852
2.674851,69.915474,188.133718,950.497770
2.684851,69.884523,188.817386,952.382526
2.694851,69.853765,189.500752,954.274117
2.704851,69.822981,190.183787,956.172540
2.714851,69.792353,190.866461,958.077791
2.724851,69.761880,191.548746,959.989868
2.734851,69.731500,192.230613,961.908765
2.744851,69.701291,192.912037,963.834479
2.754851,69.671097,193.592992,965.767004
2.764851,69.640958,194.273454,967.706337
2.774851,69.610983,194.953400,969.652471
2.784851,69.580741,195.632810,971.605403
2.794851,69.550279,196.311663,973.565126
2.804851,69.519620,196.989941,975.531634
2.814851,69.489149,197.667631,977.504923
2.824851,69.458536,198.344724,979.484985
2.834851,69.427881,199.021214,981.471815
2.844851,69.397085,199.697096,983.465407
2.854851,69.366035,200.372371,985.465755
2.864851,69.334693,201.047040,987.472853
2.874851,69.303165,201.721111,989.486694
2.884851,69.271270,202.394593,991.507273
2.894851,69.238978,203.067499,993.534584
2.904851,69.205875,203.739843,995.568621
2.914851,69.171714,204.411641,997.609379
2.924851,69.136801,205.082909,999.656852
2.934851,69.101501,205.753671,1001.711035
2.944851,69.065372,206.423952,1003.771924
2.954851,69.028636,207.093780,1005.839513
2.964851,68.991173,207.763184,1007.913798
2.974851,68.952841,208.432190,1009.994775
2.984851,68.913929,209.100828,1012.082441
2.994851,68.874278,209.769127,1014.176791
3.004851,68.833815,210.437114,1016.277822
3.014851,68.792724,211.104816,1018.385532
3.024851,68.750836,211.772258,1020.499918
3.034851,68.708310,212.439460,1022.620976
3.044851,68.664854,213.106443,1024.748706
3.054851,68.620861,213.773221,1026.883104
3.064851,68.576326,214.439808,1029.024170
3.074851,68.531585,215.106216,1031.171900
3.084851,68.486451,215.772454,1033.326294
3.094851,68.441054,216.438527,1035.487349
3.104851,68.395456,217.104435,1037.655064
3.114851,68.349570,217.770174,1039.829437
3.124851,68.303649,218.435739,1042.010466
3.134851,68.257710,219.101120,1044.198151
3.144851,68.211832,219.766305,1046.392488
3.154851,68.165851,220.431278,1048.593476
3.164851,68.119282,221.096018,1050.801113
3.174851,68.072750,221.760500,1053.015396
3.184851,68.026435,222.424700,1055.236322
3.194851,67.980109,223.088594,1057.463889
3.204851,67.933836,223.752155,1059.698093
3.214851,67.887514,224.415354,1061.938931
3.224851,67.841258,225.078161,1064.186399
3.234851,67.795247,225.740546,1066.440492
3.244851,67.749341,226.402481,1068.701208
3.254851,67.703295,227.063937,1070.968541
3.264851,67.657298,227.724882,1073.242485
3.274851,67.611345,228.385288,1075.523036
3.284851,67.565294,229.045128,1077.810189
3.294851,67.519109,229.704376,1080.103937
3.304851,67.472739,230.363007,1082.404274
3.314851,67.426230,231.020999,1084.711195
3.324851,67.379736,231.678334,1087.024692
3.334851,67.333212,232.334997,1089.344759
3.344851,67.286624,232.990977,1091.671390
3.354851,67.239875,233.646266,1094.004577
3.364851,67.192674,234.300859,1096.344313
3.374851,67.145313,234.954753,1098.690591
3.384851,67.097691,235.607950,1101.043406
3.394851,67.049260,236.260457,1103.402748
3.404851,67.002402,236.912289,1105.768612
3.414851,66.962604,237.563500,1108.140992
3.424851,66.922348,238.214149,1110.519881
3.434851,66.881800,238.864268,1112.905273
3.444851,66.840664,239.513871,1115.297164
3.454851,66.798959,240.162973,1117.695549
3.464851,66.757323,240.811604,1120.100422
3.474851,66.715074,241.459798,1122.511779
3.484851,66.672298,242.107585,1124.929617
3.494851,66.628716,242.754985,1127.353930
3.504851,66.584357,243.402022,1129.784715
3.514851,66.539444,244.048717,1132.221969
3.524851,66.494093,244.695094,1134.665688
3.534851,66.448311,245.341174,1137.115870
3.544851,66.402179,245.986973,1139.572511
3.554851,66.355697,246.632505,1142.035609
3.564851,66.308979,247.277781,1144.505160
3.574851,66.262174,247.922808,1146.981163
3.584851,66.215225,248.567592,1149.463616
3.594851,66.168075,249.212131,1151.952514
3.604851,66.120724,249.856420,1154.447857
3.614851,66.073181,250.500449,1156.949642
3.624851,66.025828,251.144203,1159.457865
3.634851,65.978539,251.787665,1161.972525
3.644851,65.931468,252.430816,1164.493618
3.654851,65.884465,253.073640,1167.021140
3.664851,65.837740,253.716115,1169.555089
3.674851,65.791123,254.358218,1172.095461
3.684851,65.744665,254.999926,1174.642252
3.694851,65.698543,255.641215,1177.195458
3.704851,65.652160,256.282060,1179.755075
3.714851,65.605861,256.922435,1182.321098
3.724851,65.559783,257.562314,1184.893522
3.734851,65.513826,258.201676,1187.472343
3.744851,65.467954,258.840501,1190.057554
3.754851,65.422316,259.478770,1192.649151
3.764851,65.376817,260.116467,1195.247127
3.774851,65.331351,260.753578,1197.851478
3.784851,65.285933,261.390094,1200.462197
3.794851,65.240531,262.026006,1203.079278
3.804851,65.194760,262.661312,1205.702715
3.814851,65.147722,263.296027,1208.332502
3.824851,65.100504,263.930168,1210.968634
3.834851,65.053099,264.563750,1213.611104
3.844851,65.005422,265.196777,1216.259907
3.854851,64.957506,265.829256,1218.915038
3.864851,64.909256,266.461195,1221.576490
3.874851,64.860765,267.092609,1224.244260
3.884851,64.811942,267.723508,1226.918341
3.894851,64.762477,268.353902,1229.598728
3.904851,64.712639,268.983801,1232.285417
3.914851,64.662438,269.613218,1234.978403
3.924851,64.611940,270.242164,1237.677680
3.934851,64.530247,270.870516,1240.383244
3.944851,64.447336,271.498121,1243.095088
3.954851,64.363942,272.124927,1245.813204
3.964851,64.280057,272.750968,1248.537584
3.974851,64.195620,273.376277,1251.268221
3.984851,64.110520,274.000847,1254.005107
3.994851,64.025063,274.624657,1256.748235
4.004851,63.939234,275.247697,1259.497597
4.014851,63.853122,275.869970,1262.253186
4.024851,63.766730,276.491474,1265.014994
4.034851,63.680052,277.112199,1267.783013
4.044851,63.593138,277.732130,1270.557235
4.054851,63.505989,278.351257,1273.337653
4.064851,63.418311,278.969564,1276.124258
4.074851,63.330318,279.587039,1278.917042
4.084851,63.242131,280.203665,1281.715996
4.094851,63.153701,280.819428,1284.521112
4.104851,63.065140,281.434312,1287.332382
4.114851,62.976277,282.048305,1290.149795
4.124851,62.887203,282.661392,1292.973345
4.134851,62.797937,283.273560,1295.803020
4.144851,62.708341,283.884795,1298.638813
4.154851,62.618166,284.495087,1301.480713
4.164851,62.527722,285.104422,1304.328711
4.174851,62.437010,285.712793,1307.182798
4.184851,62.345964,286.320192,1310.042964
4.194851,62.254601,286.926617,1312.909199
4.204851,62.162931,287.532062,1315.781493
4.214851,62.070841,288.136527,1318.659837
4.224851,61.978304,288.740012,1321.544220
4.234851,61.885166,289.342516,1324.434634
4.244851,61.791455,289.944041,1327.331067
4.254851,61.697264,290.544590,1330.233511
4.264851,61.602580,291.144168,1333.141956
4.274851,61.507383,291.742781,1336.056391
4.284851,61.411687,292.340434,1338.976808
4.294851,61.315512,292.937134,1341.903197
4.304851,61.218559,293.532886,1344.835548
4.314851,61.121094,294.127694,1347.773851
4.324851,61.023086,294.721562,1350.718098
4.334851,60.924652,295.314495,1353.668280
4.344851,60.825748,295.906496,1356.624385
4.354851,60.726406,296.497568,1359.586406
4.364851,60.626729,297.087711,1362.554334
4.374851,60.526436,297.676923,1365.528157
4.384851,60.425705,298.265201,1368.507869
4.394851,60.324701,298.852541,1371.493458
4.404851,60.223430,299.438937,1374.484917
4.414851,60.121843,300.024385,1377.482234
4.424851,60.020018,300.608876,1380.485401
4.434851,59.917985,301.192401,1383.494408
4.443183,59.823351,301.677837,1386.006074
4.444481,59.806452,301.753373,1386.397627
4.445779,59.789538,301.828888,1386.789279
4.447076,59.772618,301.904382,1387.181028
4.448374,59.755725,301.979854,1387.572876
4.449672,59.738819,302.055305,1387.964821
4.452267,59.704963,302.206143,1388.749005
4.454863,59.671107,302.356896,1389.533581
4.457458,59.637265,302.507564,1390.318548
4.460054,59.603406,302.658146,1391.103906
4.464706,59.542695,302.927808,1392.512420
4.469357,59.481976,303.197193,1393.922187
4.474009,59.425556,303.466310,1395.333206
4.478661,59.371946,303.735173,1396.745477
4.483313,59.318370,304.003790,1398.158998
4.490270,59.238172,304.405076,1400.275400
4.497227,59.157989,304.805807,1402.394592
4.504184,59.077755,305.205978,1404.516570
4.511141,58.997536,305.605583,1406.641330
4.518099,58.917257,306.004623,1408.768868
4.527562,58.808046,306.546524,1411.667404
4.537026,58.665078,307.087234,1414.571064
4.546490,58.518618,307.626572,1417.479835
4.555954,58.371936,308.164458,1420.393702
4.565418,58.225021,308.700916,1423.312654
4.574881,58.077866,309.235980,1426.236676
4.584881,57.922086,309.799840,1429.331856
4.594881,57.724113,310.361938,1432.432667
4.604881,57.518613,310.922018,1435.539088
4.614881,57.312720,311.479978,1438.651100
4.624881,57.106400,312.035859,1441.768681
4.634881,56.899630,312.589711,1444.891811
