# Time (s), acceleration Magnitude (m/s²), Vz (m/s), Z (m)
0.000000,71.182846,0.000000,697.000000
0.005756,71.191282,0.409440,697.002357
0.011512,71.199682,0.818928,697.007070
0.021512,71.214190,1.530411,697.018817
0.031512,71.228563,2.242039,697.037679
0.041512,71.242844,2.953810,697.063659
0.051512,71.256995,3.665722,697.096756
0.061512,71.270946,4.377776,697.136974
0.071512,71.284774,5.089968,697.184313
0.081512,71.298426,5.802297,697.238774
0.091512,71.311878,6.514762,697.300359
0.101512,71.325295,7.227360,697.369070
0.111512,71.338552,7.940093,697.444907
0.121512,71.351676,8.652957,697.527872
0.131512,71.364673,9.365951,697.617967
0.141512,71.377469,10.079074,697.715192
0.151512,71.390202,10.792325,697.819549
0.161512,71.402795,11.505703,697.931039
0.171512,71.415232,12.219205,698.049664
0.181512,71.427562,12.932831,698.175424
0.191512,71.439659,13.646579,698.308321
0.201512,71.451654,14.360448,698.448356
0.211512,71.463549,15.074436,698.595530
0.221512,71.475343,15.788542,698.749845
0.231512,71.487034,16.502766,698.911302
0.241512,71.498625,17.217106,699.079901
0.251512,71.509953,17.931560,699.255644
0.261512,71.521146,18.646127,699.438533
0.271512,71.532240,19.360806,699.628567
0.281512,71.543233,20.075594,699.825749
0.291512,71.554130,20.790492,700.030080
0.301512,71.564937,21.505499,700.241559
0.311512,71.575460,22.220612,700.460190
0.321512,71.585853,22.935829,700.685972
0.331512,71.596148,23.651150,700.918907
0.341512,71.606347,24.366574,701.158995
0.351512,71.616451,25.082098,701.406239
0.361512,71.626458,25.797723,701.660638
0.371512,71.636176,26.513447,701.922194
0.381512,71.645769,27.229267,702.190907
0.391512,71.655265,27.945183,702.466779
0.401512,71.664664,28.661193,702.749811
0.411512,71.673967,29.377296,703.040003
0.421512,71.683172,30.093492,703.337357
0.431512,71.692082,30.809779,703.641874
0.441512,71.700871,31.526153,703.953553
0.451512,71.709562,32.242615,704.272397
0.461512,71.718155,32.959164,704.598406
0.471512,71.726652,33.675798,704.931581
0.481512,71.735051,34.392516,705.271922
0.491512,71.743145,35.109317,705.619431
0.501512,71.751123,35.826198,705.974109
0.511512,71.759003,36.543158,706.335956
0.521512,71.766786,37.260196,706.704972
0.531512,71.774471,37.977312,707.081160
0.541512,71.782052,38.694504,707.464519
0.551512,71.789324,39.411770,707.855050
0.561512,71.796487,40.129108,708.252755
0.571512,71.803551,40.846517,708.657633
0.581512,71.810514,41.563996,709.069685
0.591512,71.817373,42.281545,709.488913
0.601512,71.824133,42.999161,709.915317
0.611512,71.830539,43.716843,710.348897
0.621512,71.836836,44.434589,710.789654
0.623806,71.838267,44.599220,710.891757
0.625078,71.847974,44.690493,710.948600
0.626349,71.848687,44.781767,711.005559
0.628893,71.850355,44.964317,711.119709
0.631437,71.852099,45.146871,711.234323
0.633981,71.853531,45.329429,711.349401
0.643981,71.859522,46.047115,711.806284
0.653981,71.865679,46.764860,712.270344
0.663981,71.871557,47.482667,712.741581
0.673981,71.877350,48.200534,713.219997
0.683981,71.883017,48.918464,713.705592
0.693981,71.888081,49.636453,714.198367
0.703981,71.893294,50.354501,714.698321
0.713981,71.898310,51.072610,715.205457
0.723981,71.903181,51.790780,715.719774
0.733981,71.907955,52.509010,716.241273
0.743981,71.912698,53.227303,716.769954
0.753981,71.917132,53.945657,717.305819
0.763981,71.921537,54.664074,717.848868
0.773981,71.925600,55.382552,718.399101
0.783981,71.929450,56.101091,718.956519
0.793981,71.933160,56.819690,719.521123
0.803981,71.936730,57.538350,720.092913
0.813981,71.940438,58.257071,720.671890
0.823981,71.943776,58.975854,721.258055
0.833981,71.946969,59.694697,721.851407
0.843981,71.950353,60.413603,722.451949
0.853981,71.953093,61.132569,723.059679
0.863981,71.955774,61.851593,723.674600
0.873981,71.958445,62.570676,724.296712
0.883981,71.960921,63.289817,724.926014
0.893981,71.963154,64.009014,725.562508
0.903981,71.965369,64.728267,726.206194
0.913981,71.967484,65.447574,726.857074
0.923981,71.969399,66.166934,727.515146
0.933981,71.971226,66.886346,728.180412
0.943981,71.972772,67.605806,728.852873
0.953981,71.974225,68.325312,729.532529
0.963981,71.975389,69.044861,730.219380
0.973981,71.976698,69.764450,730.913426
0.983981,71.977837,70.484078,731.614669
0.993981,71.978835,71.203742,732.323108
1.003981,71.979862,71.923438,733.038744
1.013981,71.980633,72.643164,733.761577
1.023981,71.981106,73.362913,734.491607
1.033981,71.981503,74.082681,735.228835
1.043981,71.981824,74.802465,735.973261
1.053981,71.982183,75.522259,736.724884
1.063981,71.982264,76.242060,737.483706
1.073981,71.982268,76.961862,738.249725
1.083981,71.982288,77.681660,739.022943
1.093981,71.982238,78.401449,739.803359
1.103981,71.981892,79.121224,740.590972
1.113981,71.981370,79.840976,741.385783
1.123981,71.980786,80.560699,742.187791
1.133981,71.980199,81.280387,742.996997
1.143981,71.979416,82.000032,743.813399
1.153981,71.978796,82.719630,744.636997
1.163981,71.977849,83.439174,745.467791
1.173981,71.977096,84.158658,746.305781
1.183981,71.975839,84.878073,747.150964
1.193981,71.974622,85.597413,748.003342
1.203981,71.973305,86.316670,748.862912
1.213981,71.971720,87.035839,749.729675
1.223981,71.970155,87.754913,750.603629
1.233981,71.968552,88.473886,751.484773
1.243981,71.966769,89.192754,752.373106
1.253981,71.964985,89.911512,753.268628
1.263981,71.963033,90.630154,754.171336
1.273981,71.960719,91.348676,755.081230
1.283981,71.958403,92.067072,755.998309
1.293981,71.955829,92.785340,756.922571
1.303981,71.953168,93.503476,757.854015
1.313981,71.950477,94.221479,758.792640
1.323981,71.947621,94.939347,759.738445
1.333981,71.944759,95.657080,760.691427
1.343981,71.941634,96.374679,761.651586
1.353981,71.938383,97.092143,762.618920
1.363981,71.935155,97.809474,763.593428
1.373981,71.931447,98.526673,764.575109
1.383981,71.927364,99.243742,765.563961
1.393981,71.922999,99.960680,766.559983
1.403981,71.918548,100.677490,767.563174
1.413981,71.913837,101.394179,768.573533
1.423981,71.909023,102.110750,769.591058
1.433981,71.903935,102.827210,770.615747
1.443981,71.898725,103.543565,771.647601
1.453981,71.893315,104.259820,772.686618
1.463981,71.887502,104.975983,773.732797
1.473981,71.881667,105.692059,774.786138
1.483981,71.875530,106.408057,775.846638
1.493981,71.868949,107.123982,776.914299
1.503981,71.861823,107.839841,777.989118
1.513981,71.854551,108.555638,779.071095
1.523981,71.847023,109.271381,780.160230
1.533981,71.839320,109.987079,781.256523
1.543981,71.831259,110.702737,782.359972
1.553981,71.823042,111.418363,783.470577
1.563981,71.814545,112.133962,784.588339
1.573981,71.805939,112.849542,785.713257
1.583981,71.796980,113.565107,786.845330
1.593981,71.787868,114.280663,787.984559
1.603981,71.778440,114.996213,789.130943
1.613981,71.768354,115.711759,790.284483
1.623981,71.758192,116.427301,791.445178
1.633981,71.748018,117.142843,792.613029
1.643981,71.737293,117.858386,793.788035
1.653981,71.726589,118.573929,794.970197
1.663981,71.715819,119.289473,796.159514
1.673981,71.704703,120.005019,797.355986
1.683981,71.693536,120.720562,798.559614
1.693981,71.682291,121.436101,799.770397
1.703981,71.670911,122.151635,800.988336
1.713981,71.659421,122.867158,802.213430
1.723981,71.647348,123.582664,803.445679
1.733981,71.635190,124.298146,804.685083
1.743981,71.623006,125.013598,805.931642
1.753981,71.610716,125.729015,807.185355
1.763981,71.598355,126.444391,808.446222
1.773981,71.585956,127.159719,809.714243
1.783981,71.573502,127.874994,810.989416
1.793981,71.560956,128.590207,812.271742
1.803981,71.548421,129.305353,813.561220
1.813981,71.535760,130.020425,814.857849
1.823981,71.523151,130.735416,816.161628
1.833981,71.510016,131.450319,817.472557
1.843981,71.496818,132.165126,818.790635
1.853981,71.483537,132.879828,820.115859
1.863981,71.470042,133.594421,821.448231
1.873981,71.456619,134.308900,822.787747
1.883981,71.443098,135.023260,824.134408
1.893981,71.429489,135.737497,825.488212
1.903981,71.415679,136.451607,826.849158
1.913981,71.401855,137.165586,828.217244
1.923981,71.388008,137.879431,829.592469
1.933981,71.373876,138.593141,830.974832
1.943981,71.359414,139.306709,832.364331
1.953981,71.344567,140.020133,833.760966
1.963981,71.329850,140.733409,835.164734
1.973981,71.314529,141.446534,836.575633
1.983981,71.299192,142.159506,837.993664
1.993981,71.283919,142.872324,839.418823
2.003981,71.268182,143.584986,840.851110
2.013981,71.252564,144.297489,842.290522
2.023981,71.236677,145.009832,843.737059
2.033981,71.220642,145.722013,845.190718
2.043981,71.204542,146.434028,846.651499
2.053981,71.188131,147.145874,848.119398
2.063981,71.171315,147.857547,849.594416
2.073981,71.154187,148.569039,851.076549
2.083981,71.137045,149.280346,852.565796
2.093981,71.119769,149.991464,854.062155
2.103981,71.102211,150.702387,855.565624
2.113981,71.084678,151.413110,857.076202
2.123981,71.066882,152.123627,858.593886
2.133981,71.049156,152.833933,860.118674
2.143981,71.031142,153.544022,861.650564
2.153981,71.013317,154.253889,863.189554
2.163981,70.995264,154.963528,864.735641
2.173981,70.976693,155.672933,866.288823
2.183981,70.957984,156.382095,867.849099
2.193981,70.939207,157.091009,869.416464
2.203981,70.920301,157.799672,870.990918
2.213981,70.901326,158.508079,872.572457
2.223981,70.882087,159.216229,874.161079
2.233981,70.862983,159.924119,875.756781
2.243981,70.843658,160.631748,877.359560
2.253981,70.824097,161.339116,878.969415
2.263981,70.804415,162.046223,880.586342
2.273981,70.784463,162.753070,882.210338
2.283981,70.764454,163.459660,883.841402
2.293981,70.744062,164.165995,885.479531
2.303981,70.723547,164.872079,887.124721
2.313981,70.702630,165.577918,888.776972
2.323981,70.681402,166.283513,890.436279
2.333981,70.659261,166.988869,892.102641
2.343981,70.636886,167.693987,893.776055
2.353981,70.614283,168.398874,895.456520
2.363981,70.591240,169.103536,897.144032
2.373981,70.567952,169.807979,898.838590
2.383981,70.544356,170.512210,900.540191
2.393981,70.520281,171.216233,902.248833
2.403981,70.495911,171.920054,903.964515
2.413981,70.471261,172.623678,905.687234
2.423981,70.446297,173.327109,907.416988
2.433981,70.421127,174.030350,909.153775
2.443981,70.395815,174.733403,910.897594
2.453981,70.370218,175.436269,912.648443
2.463981,70.344405,176.138948,914.406319
2.473981,70.318453,176.841439,916.171221
2.483981,70.291705,177.543736,917.943147
2.493981,70.264787,178.245835,919.722095
2.503981,70.237873,178.947730,921.508063
2.513981,70.210853,179.649417,923.301049
2.523981,70.183695,180.350894,925.101051
2.533981,70.156478,181.052153,926.908066
2.543981,70.129276,181.753190,928.722093
2.553981,70.101992,182.453999,930.543129
2.563981,70.074507,183.154572,932.371172
2.573981,70.046925,183.854903,934.206220
2.583981,70.019223,184.554985,936.048270
2.593981,69.991485,185.254813,937.897319
2.603981,69.963625,185.954381,939.753365
2.613981,69.934832,186.653680,941.616406
2.623981,69.905847,187.352700,943.486438
2.633981,69.876216,188.051432,945.363459
2.643981,69.846212,188.749870,947.247465
2.653981,69.816040,189.448008,949.138455
2.663981,69.785593,190.145841,951.036425
2.673981,69.754832,190.843366,952.941371
2.683981,69.723959,191.540578,954.853291
2.693981,69.692778,192.237474,956.772181
2.703981,69.661401,192.934049,958.698039
2.713981,69.629653,193.630299,960.630861
2.723981,69.597763,194.326220,962.570644
2.733981,69.565660,195.021809,964.517385
2.743981,69.533428,195.717060,966.471079
2.753981,69.500865,196.411970,968.431725
2.763981,69.468152,197.106533,970.399317
2.773981,69.435249,197.800744,972.373854
2.783981,69.401990,198.494598,974.355331
2.793981,69.368266,199.188086,976.343745
2.803981,69.334539,199.881202,978.339092
2.813981,69.300533,200.573941,980.341368
2.823981,69.266500,201.266299,982.350569
2.833981,69.232273,201.958271,984.366692
2.843981,69.198038,202.649855,986.389733
2.853981,69.163610,203.341047,988.419688
2.863981,69.129025,204.031844,990.456553
2.873981,69.094203,204.722244,992.500324
2.883981,69.059301,205.412247,994.550996
2.893981,69.024191,206.101852,996.608567
2.903981,68.988622,206.791060,998.673032
2.913981,68.952096,207.479868,1000.744387
2.923981,68.915143,208.168273,1002.822628
2.933981,68.877758,208.856275,1004.907751
2.943981,68.840299,209.543879,1006.999752
2.953981,68.802196,210.231089,1009.098627
2.963981,68.763804,210.917907,1011.204373
2.973981,68.725043,211.604337,1013.316984
2.983981,68.685876,212.290382,1015.436458
2.993981,68.646493,212.976046,1017.562791
3.003981,68.606525,213.661333,1019.695978
3.013981,68.566198,214.346244,1021.836016
3.023981,68.525663,215.030780,1023.982902
3.033981,68.484607,215.714942,1026.136630
3.043981,68.442938,216.398731,1028.297199
3.053981,68.400939,217.082142,1030.464604
3.063981,68.358711,217.765174,1032.638841
3.073981,68.316275,218.447826,1034.819906
3.083981,68.273761,219.130097,1037.007796
3.093981,68.230949,219.811984,1039.202507
3.103981,68.188085,220.493483,1041.404034
3.113981,68.144834,221.174590,1043.612375
3.123981,68.101620,221.855300,1045.827525
3.133981,68.058134,222.535610,1048.049480
3.143981,68.014660,223.215514,1050.278236
3.153981,67.970824,223.895007,1052.513789
3.163981,67.926365,224.574082,1054.756134
3.173981,67.881505,225.252730,1057.005269
3.183981,67.836467,225.930943,1059.261188
3.193981,67.791291,226.608719,1061.523886
3.203981,67.745678,227.286051,1063.793360
3.213981,67.699774,227.962933,1066.069606
3.223981,67.653543,228.639359,1068.352618
3.233981,67.607093,229.315324,1070.642391
3.243981,67.560441,229.990822,1072.938923
3.253981,67.513348,230.665848,1075.242206
3.263981,67.465884,231.340396,1077.552238
3.273981,67.418216,232.014458,1079.869013
3.283981,67.370245,232.688029,1082.192525
3.293981,67.321608,233.361102,1084.522771
3.303981,67.272742,234.033668,1086.859746
3.313981,67.223474,234.705721,1089.203443
3.323981,67.174116,235.377253,1091.553858
3.333981,67.124566,236.048262,1093.910986
3.343981,67.074896,236.718742,1096.274822
3.353981,67.024985,237.388690,1098.645360
3.363981,66.974642,238.058100,1101.022594
3.373981,66.924166,238.726967,1103.406520
3.383981,66.873550,239.395290,1105.797131
3.393981,66.822212,240.063065,1108.194424
3.403981,66.772758,240.730298,1110.598391
3.413981,66.730532,241.397032,1113.009028
3.423981,66.688127,242.063310,1115.426330
3.433981,66.645490,242.729147,1117.850293
3.443981,66.602723,243.394536,1120.280911
3.453981,66.559686,244.059472,1122.718182
3.463981,66.516918,244.723964,1125.162099
3.473981,66.474036,245.388022,1127.612660
3.483981,66.430855,246.051654,1130.069858
3.493981,66.387222,246.714859,1132.533691
3.503981,66.343116,247.377635,1135.004154
3.513981,66.298717,248.039985,1137.481243
3.523981,66.254249,248.701912,1139.964953
3.533981,66.209572,249.363418,1142.455280
3.543981,66.164732,250.024506,1144.952219
3.553981,66.119768,250.685175,1147.455768
3.563981,66.074841,251.345425,1149.965922
3.573981,66.029747,252.005257,1152.482675
3.583981,65.984584,252.664670,1155.006025
3.593981,65.939422,253.323662,1157.535967
3.603981,65.893717,253.982228,1160.072497
3.613981,65.847975,254.640365,1162.615610
3.623981,65.802181,255.298068,1165.165303
3.633981,65.756338,255.955336,1167.721570
3.643981,65.710449,256.612164,1170.284408
3.653981,65.664443,257.268549,1172.853812
3.663981,65.618317,257.924488,1175.429778
3.673981,65.572058,258.579975,1178.012300
3.683981,65.525771,259.235007,1180.601376
3.693981,65.479347,259.889580,1183.196999
3.703981,65.432424,260.543689,1185.799166
3.713981,65.385230,261.197325,1188.407871
3.723981,65.337996,261.850485,1191.023111
3.733981,65.290596,262.503163,1193.644879
3.743981,65.243147,263.155355,1196.273172
3.753981,65.195656,263.807060,1198.907985
3.763981,65.148099,264.458271,1201.549312
3.773981,65.100491,265.108986,1204.197149
3.783981,65.052783,265.759203,1206.851490
3.793981,65.005024,266.408917,1209.512331
3.803981,64.957109,267.058126,1212.179667
3.813981,64.908863,267.706827,1214.853492
3.823981,64.860602,268.355016,1217.533801
3.833981,64.812174,269.002693,1220.220590
3.843981,64.763677,269.649857,1222.913854
3.853981,64.715040,270.296510,1225.613586
3.863981,64.666246,270.942651,1228.319782
3.873981,64.617323,271.588283,1231.032437
3.883981,64.568192,272.233408,1233.751546
3.893981,64.518573,272.878026,1236.477104
3.903981,64.468625,273.522137,1239.209105
3.913981,64.418524,274.165744,1241.947545
3.923981,64.351883,274.808778,1244.692418
3.933981,64.269536,275.451089,1247.443718
3.943981,64.186683,276.092566,1250.201437
3.953981,64.103460,276.733199,1252.965567
3.963981,64.019802,277.373018,1255.736098
3.973981,63.935689,278.012034,1258.513024
3.983981,63.850910,278.650230,1261.296336
3.993981,63.765752,279.287592,1264.086026
4.003981,63.680330,279.924115,1266.882085
4.013981,63.594520,280.559805,1269.684505
4.023981,63.508367,281.194659,1272.493278
4.033981,63.421918,281.828671,1275.308396
4.043981,63.335108,282.461834,1278.129849
4.053981,63.247980,283.094142,1280.957630
4.063981,63.160261,283.725590,1283.791729
4.073981,63.072025,284.356172,1286.632139
4.083981,62.983464,284.985879,1289.478849
4.093981,62.894547,285.614706,1292.331853
4.103981,62.805246,286.242646,1295.191141
4.113981,62.715618,286.869695,1298.056703
4.123981,62.625592,287.495844,1300.928532
4.133981,62.535224,288.121088,1303.806617
4.143981,62.444425,288.745421,1306.690950
4.153981,62.353057,289.368834,1309.581522
4.163981,62.261334,289.991320,1312.478324
4.173981,62.169290,290.612873,1315.381346
4.183981,62.076958,291.233489,1318.290578
4.193981,61.984315,291.853162,1321.206012
4.203981,61.891333,292.471888,1324.127638
4.213981,61.798010,293.089663,1327.055447
4.223981,61.704427,293.706482,1329.989428
4.233981,61.610269,294.322342,1332.929573
4.243981,61.515606,294.937240,1335.875872
4.253981,61.420582,295.551170,1338.828315
4.263981,61.325134,296.164132,1341.786892
4.273981,61.229338,296.776123,1344.751594
4.283981,61.133105,297.387144,1347.722411
4.293981,61.036468,297.997193,1350.699334
4.303981,60.939207,298.606268,1353.682352
4.313981,60.841493,299.214366,1356.671456
4.323981,60.743285,299.821487,1359.666636
4.333981,60.644725,300.427629,1362.667882
4.343981,60.545766,301.032790,1365.675185
4.353981,60.446439,301.636970,1368.688535
4.363981,60.346786,302.240168,1371.707922
4.373981,60.246602,302.842379,1374.733335
4.383981,60.145957,303.443600,1377.764766
4.393981,60.044963,304.043827,1380.802204
4.403981,59.943681,304.643058,1383.845639
4.413981,59.842080,305.241288,1386.895062
4.423981,59.740200,305.838515,1389.950461
4.433981,59.637995,306.434734,1393.011829
4.442270,59.546189,306.928155,1395.553954
4.443563,59.529297,307.005053,1395.950861
4.444856,59.512419,307.081928,1396.347866
4.446149,59.495528,307.158782,1396.744972
4.447442,59.478639,307.235614,1397.142176
4.448735,59.461754,307.312424,1397.539480
4.451321,59.427950,307.465980,1398.334386
4.453907,59.394149,307.619448,1399.129688
4.456493,59.360292,307.772830,1399.925388
4.459079,59.326460,307.926125,1400.721484
4.463725,59.266635,308.201332,1402.152819
4.468371,59.212944,308.476276,1403.585432
4.473018,59.159205,308.750969,1405.019322
4.477664,59.105440,309.025416,1406.454488
4.482310,59.051657,309.299615,1407.890928
4.489312,58.970555,309.712357,1410.058014
4.496314,58.889379,310.124531,1412.227988
4.503315,58.808131,310.536133,1414.400846
4.510317,58.726835,310.947164,1416.576583
4.517319,58.645478,311.357625,1418.755197
4.526814,58.508513,311.913202,1421.714079
4.536308,58.360613,312.467438,1424.678229
4.545803,58.212525,313.020230,1427.647635
4.555298,58.064202,313.571581,1430.622283
4.564792,57.915631,314.121525,1433.602159
4.574287,57.766878,314.670064,1436.587250
4.584287,57.577634,315.246117,1439.736832
4.594287,57.371180,315.820193,1442.892166
4.604287,57.164343,316.392144,1446.053229
4.614287,56.957189,316.961978,1449.220002
4.624287,56.749662,317.529747,1452.392462
4.634287,56.541789,318.095455,1455.570590
4.644287,56.318078,318.659009,1458.754364
4.654287,56.089896,319.220293,1461.943762
4.664287,55.861337,319.779261,1465.138762
