# Time (s), acceleration Magnitude (m/s²), Vz (m/s), Z (m)
0.000000,71.221957,0.000000,697.000000
0.005766,71.230407,0.408735,697.002357
0.011532,71.238821,0.817519,697.007070
0.021532,71.253329,1.526557,697.018791
0.031532,71.267703,2.235738,697.037602
0.041532,71.281991,2.945062,697.063506
0.051532,71.296163,3.654527,697.096504
0.061532,71.310127,4.364133,697.136598
0.071532,71.323969,5.073876,697.183788
0.081532,71.337637,5.783757,697.238076
0.091532,71.351107,6.493773,697.299463
0.101532,71.364504,7.203922,697.367952
0.111532,71.377770,7.914204,697.443543
0.121532,71.390904,8.624618,697.526237
0.131532,71.403913,9.335161,697.616036
0.141532,71.416721,10.045833,697.712941
0.151532,71.429452,10.756632,697.816953
0.161532,71.442057,11.467557,697.928074
0.171532,71.454505,12.178607,698.046305
0.181532,71.466848,12.889780,698.171647
0.191532,71.478957,13.601075,698.304101
0.201532,71.490958,14.312490,698.443669
0.211532,71.502867,15.024024,698.590351
0.221532,71.514674,15.735676,698.744150
0.231532,71.526380,16.447444,698.905065
0.241532,71.537984,17.159329,699.073099
0.251532,71.549325,17.871328,699.248252
0.261532,71.560533,18.583439,699.430526
0.271532,71.571643,19.295661,699.619922
0.281532,71.582653,20.007994,699.816440
0.291532,71.593565,20.720435,700.020082
0.301532,71.604390,21.432985,700.230849
0.311532,71.614931,22.145641,700.448742
0.321532,71.625342,22.858401,700.673762
0.331532,71.635657,23.571264,700.905911
0.341532,71.645874,24.284230,701.145188
0.351532,71.655999,24.997296,701.391596
0.361532,71.666027,25.710463,701.645134
0.371532,71.675766,26.423729,701.905805
0.381532,71.685382,27.137091,702.173609
0.391532,71.694901,27.850547,702.448547
0.401532,71.704324,28.564098,702.730621
0.411532,71.713651,29.277743,703.019830
0.421532,71.722881,29.991479,703.316176
0.431532,71.731816,30.705307,703.619660
0.441532,71.740632,31.419222,703.930282
0.451532,71.749350,32.133225,704.248044
0.461532,71.757972,32.847314,704.572947
0.471532,71.766497,33.561488,704.904991
0.481532,71.774926,34.275747,705.244177
0.491532,71.783051,34.990088,705.590506
0.501532,71.791060,35.704510,705.943979
0.511532,71.798973,36.419010,706.304597
0.521532,71.806789,37.133589,706.672360
0.531532,71.814508,37.848245,707.047269
0.541532,71.822125,38.562978,707.429325
0.551532,71.829433,39.277784,707.818529
0.561532,71.836632,39.992663,708.214881
0.571532,71.843734,40.707613,708.618382
0.581532,71.850739,41.422634,709.029033
0.591532,71.857638,42.137723,709.446835
0.601532,71.864439,42.852881,709.871788
0.611532,71.870886,43.568104,710.303893
0.621532,71.877227,44.283391,710.743151
0.623634,71.878547,44.433760,710.836397
0.624852,71.892588,44.520755,710.890610
0.626069,71.893294,44.607751,710.944929
0.628505,71.894783,44.781746,711.053780
0.630940,71.896209,44.955744,711.163054
0.633376,71.897850,45.129746,711.272752
0.643376,71.904007,45.844248,711.727622
0.653376,71.909947,46.558814,712.189637
0.663376,71.915922,47.273442,712.658798
0.673376,71.921570,47.988131,713.135106
0.683376,71.927412,48.702881,713.618561
0.693376,71.932645,49.417692,714.109164
0.703376,71.937628,50.132559,714.606915
0.713376,71.942758,50.847482,715.111815
0.723376,71.947700,51.562462,715.623865
0.733376,71.952640,52.277499,716.143064
0.743376,71.957444,52.992592,716.669415
0.753376,71.962034,53.707740,717.202916
0.763376,71.966495,54.422942,717.743570
0.773376,71.970732,55.138197,718.291376
0.783376,71.974802,55.853503,718.846334
0.793376,71.978686,56.568859,719.408446
0.803376,71.982440,57.284263,719.977711
0.813376,71.986123,57.999715,720.554131
0.823376,71.989816,58.715213,721.137706
0.833376,71.993256,59.430758,721.728436
0.843376,71.996681,60.146348,722.326321
0.853376,71.999711,60.861981,722.931363
0.863376,72.002600,61.577654,723.543561
0.873376,72.005416,62.293365,724.162916
0.883376,72.007929,63.009112,724.789428
0.893376,72.010598,63.724895,725.423098
0.903376,72.013172,64.440712,726.063926
0.913376,72.015433,65.156562,726.711913
0.923376,72.017815,65.872442,727.367058
0.933376,72.019846,66.588351,728.029362
0.943376,72.021665,67.304285,728.698825
0.953376,72.023284,68.020241,729.375447
0.963376,72.024897,68.736216,730.059230
0.973376,72.026357,69.452209,730.750172
0.983376,72.027805,70.168217,731.448274
0.993376,72.029140,70.884238,732.153536
1.003376,72.030280,71.600269,732.865959
1.013376,72.031642,72.316309,733.585541
1.023376,72.032294,73.032353,734.312285
1.033376,72.032968,73.748398,735.046189
1.043376,72.033462,74.464439,735.787253
1.053376,72.033801,75.180474,736.535477
1.063376,72.034133,75.896501,737.290862
1.073376,72.034194,76.612517,738.053407
1.083376,72.034396,77.328518,738.823112
1.093376,72.034462,78.044502,739.599978
1.103376,72.034085,78.760464,740.384002
1.113376,72.033446,79.476397,741.175187
1.123376,72.033018,80.192298,741.973530
1.133376,72.032429,80.908164,742.779033
1.143376,72.031681,81.623991,743.591693
1.153376,72.030968,82.339776,744.411512
1.163376,72.029951,83.055512,745.238489
1.173376,72.029039,83.771197,746.072622
1.183376,72.027793,84.486826,746.913913
1.193376,72.026440,85.202393,747.762359
1.203376,72.024958,85.917894,748.617960
1.213376,72.023370,86.633324,749.480716
1.223376,72.021686,87.348678,750.350626
1.233376,72.019900,88.063953,751.227690
1.243376,72.018066,88.779145,752.111905
1.253376,72.016157,89.494248,753.003272
1.263376,72.013875,90.209259,753.901790
1.273376,72.011541,90.924171,754.807457
1.283376,72.009045,91.638981,755.720273
1.293376,72.006220,92.353682,756.640236
1.303376,72.003564,93.068272,757.567346
1.313376,72.000745,93.782746,758.501601
1.323376,71.997871,94.497102,759.443001
1.333376,71.994802,95.211335,760.391543
1.343376,71.991785,95.925442,761.347227
1.353376,71.988535,96.639421,762.310051
1.363376,71.985286,97.353266,763.280015
1.373376,71.981917,98.066976,764.257116
1.383376,71.977872,98.780545,765.241354
1.393376,71.974002,99.493968,766.232727
1.403376,71.969883,100.207243,767.231233
1.413376,71.965425,100.920366,768.236871
1.423376,71.961281,101.633335,769.249640
1.433376,71.956811,102.346149,770.269537
1.443376,71.952122,103.058805,771.296562
1.453376,71.947528,103.771300,772.330713
1.463376,71.942673,104.483632,773.371988
1.473376,71.937760,105.195801,774.420385
1.483376,71.932703,105.907803,775.475903
1.493376,71.927266,106.619636,776.538540
1.503376,71.921575,107.331298,777.608295
1.513376,71.915591,108.042784,778.685166
1.523376,71.909622,108.754093,779.769150
1.533376,71.903499,109.465224,780.860247
1.543376,71.897164,110.176176,781.958454
1.553376,71.890841,110.886945,783.063770
1.563376,71.884541,111.597526,784.176192
1.573376,71.878359,112.307914,785.295720
1.583376,71.871915,113.018103,786.422350
1.593376,71.865335,113.728090,787.556081
1.603376,71.858516,114.437874,788.696911
1.613376,71.851265,115.147453,789.844838
1.623376,71.843815,115.856827,790.999860
1.633376,71.836202,116.565993,792.161974
1.643376,71.828434,117.274953,793.331179
1.653376,71.820584,117.983708,794.507472
1.663376,71.812470,118.692260,795.690852
1.673376,71.804214,119.400611,796.881317
1.683376,71.795726,120.108763,798.078864
1.693376,71.786978,120.816718,799.283491
1.703376,71.778125,121.524478,800.495198
1.713376,71.769133,122.232049,801.713980
1.723376,71.759516,122.939433,802.939838
1.733376,71.749577,123.646632,804.172768
1.743376,71.739372,124.353649,805.412770
1.753376,71.729067,125.060489,806.659841
1.763376,71.718348,125.767158,807.913979
1.773376,71.707627,126.473664,809.175183
1.783376,71.696622,127.180011,810.443452
1.793376,71.685250,127.886205,811.718783
1.803376,71.673723,128.592254,813.001176
1.813376,71.661902,129.298164,814.290628
1.823376,71.649910,130.003941,815.587138
1.833376,71.637304,130.709592,816.890706
1.843376,71.624361,131.415123,818.201330
1.853376,71.611089,132.120537,819.519008
1.863376,71.597587,132.825844,820.843740
1.873376,71.583703,133.531048,822.175525
1.883376,71.569774,134.236158,823.514361
1.893376,71.555601,134.941181,824.860248
1.903376,71.540982,135.646122,826.213184
1.913376,71.526229,136.350987,827.573170
1.923376,71.511249,137.055782,828.940204
1.933376,71.496140,137.760513,830.314285
1.943376,71.480454,138.465184,831.695414
1.953376,71.464273,139.169795,833.083589
1.963376,71.447973,139.874350,834.478809
1.973376,71.431384,140.578851,835.881075
1.983376,71.414572,141.283300,837.290386
1.993376,71.397714,141.987701,838.706741
2.003376,71.380581,142.692054,840.130140
2.013376,71.363321,143.396359,841.560582
2.023376,71.345930,144.100616,842.998067
2.033376,71.328399,144.804825,844.442594
2.043376,71.310658,145.508984,845.894163
2.053376,71.292874,146.213089,847.352774
2.063376,71.274441,146.917135,848.818425
2.073376,71.255949,147.621117,850.291116
2.083376,71.237399,148.325029,851.770847
2.093376,71.218709,149.028866,853.257617
2.103376,71.199939,149.732622,854.751424
2.113376,71.181030,150.436290,856.252269
2.123376,71.162237,151.139863,857.760150
2.133376,71.143165,151.843334,859.275066
2.143376,71.124233,152.546694,860.797016
2.153376,71.105130,153.249935,862.325999
2.163376,71.086040,153.953047,863.862014
2.173376,71.066666,154.656020,865.405060
2.183376,71.046910,155.358842,866.955134
2.193376,71.027147,156.061500,868.512236
2.203376,71.007418,156.763985,870.076364
2.213376,70.987584,157.466287,871.647515
2.223376,70.967730,158.168396,873.225689
2.233376,70.947841,158.870301,874.810882
2.243376,70.927884,159.571992,876.403094
2.253376,70.907994,160.273459,878.002321
2.263376,70.887950,160.974692,879.608562
2.273376,70.867838,161.675682,881.221814
2.283376,70.847670,162.376422,882.842075
2.293376,70.827497,163.076902,884.469342
2.303376,70.807384,163.777115,886.103612
2.313376,70.786937,164.477050,887.744883
2.323376,70.766380,165.176698,889.393152
2.333376,70.745194,165.876049,891.048416
2.343376,70.723974,166.575091,892.710672
2.353376,70.702644,167.273819,894.379917
2.363376,70.681268,167.972225,896.056148
2.373376,70.659761,168.670306,897.739361
2.383376,70.638135,169.368054,899.429553
2.393376,70.616427,170.065464,901.126721
2.403376,70.594572,170.762531,902.830861
2.413376,70.572740,171.459253,904.541970
2.423376,70.550594,172.155629,906.260045
2.433376,70.528303,172.851657,907.985081
2.443376,70.505683,173.547335,909.717077
2.453376,70.483180,174.242665,911.456027
2.463376,70.460269,174.937647,913.201929
2.473376,70.437170,175.632285,914.954779
2.483376,70.413217,176.326577,916.714573
2.493376,70.388919,177.020525,918.481309
2.503376,70.364510,177.714132,920.254983
2.513376,70.339824,178.407404,922.035591
2.523376,70.314783,179.100349,923.823130
2.533376,70.289486,179.792972,925.617597
2.543376,70.263866,180.485280,927.418988
2.553376,70.237986,181.177282,929.227301
2.563376,70.211878,181.868987,931.042533
2.573376,70.185131,182.560402,932.864680
2.583376,70.158089,183.251535,934.693740
2.593376,70.130721,183.942394,936.529710
2.603376,70.103083,184.632988,938.372587
2.613376,70.075134,185.323328,940.222369
2.623376,70.046092,186.013418,942.079053
2.633376,70.016270,186.703261,943.942636
2.643376,69.985795,187.392858,945.813117
2.653376,69.954941,188.082215,947.690493
2.663376,69.924024,188.771339,949.574760
2.673376,69.892615,189.460237,951.465919
2.683376,69.860974,190.148912,953.363964
2.693376,69.829008,190.837368,955.268896
2.703376,69.796984,191.525606,957.180711
2.713376,69.764657,192.213631,959.099407
2.723376,69.732090,192.901440,961.024983
2.733376,69.699266,193.589034,962.957436
2.743376,69.666275,194.276410,964.896763
2.753376,69.633230,194.963565,966.842963
2.763376,69.600051,195.650495,968.796034
2.773376,69.566597,196.337195,970.755972
2.783376,69.532902,197.023657,972.722777
2.793376,69.498689,197.709870,974.696444
2.803376,69.464380,198.395825,976.676973
2.813376,69.430136,199.081512,978.664360
2.823376,69.395607,199.766922,980.658602
2.833376,69.361066,200.452043,982.659698
2.843376,69.326454,201.136864,984.667642
2.853376,69.291843,201.821374,986.682434
2.863376,69.257124,202.505561,988.704069
2.873376,69.222345,203.189413,990.732544
2.883376,69.187442,203.872916,992.767856
2.893376,69.152506,204.556059,994.810001
2.903376,69.117423,205.238829,996.858976
2.913376,69.081972,205.921213,998.914776
2.923376,69.045917,206.603194,1000.977399
2.933376,69.009814,207.284759,1003.046839
2.943376,68.973420,207.965896,1005.123092
2.953376,68.937130,208.646595,1007.206155
2.963376,68.900615,209.326849,1009.296023
2.973376,68.863802,210.006647,1011.392691
2.983376,68.827048,210.685982,1013.496154
2.993376,68.789951,211.364846,1015.606409
3.003376,68.752763,212.043235,1017.723450
3.013376,68.715553,212.721145,1019.847272
3.023376,68.677860,213.398572,1021.977871
3.033376,68.639914,214.075513,1024.115242
3.043376,68.601300,214.751965,1026.259380
3.053376,68.562407,215.427925,1028.410279
3.063376,68.523286,216.103395,1030.567936
3.073376,68.483893,216.778378,1032.732346
3.083376,68.444030,217.452878,1034.903502
3.093376,68.403859,218.126898,1037.081402
3.103376,68.363463,218.800444,1039.266039
3.113376,68.322730,219.473524,1041.457409
3.123376,68.281501,220.146145,1043.655508
3.133376,68.239748,220.818310,1045.860330
3.143376,68.197649,221.490023,1048.071872
3.153376,68.155196,222.161288,1050.290129
3.163376,68.111985,222.832114,1052.515097
3.173376,68.068127,223.502508,1054.746770
3.183376,68.023698,224.172476,1056.985145
3.193376,67.978960,224.842026,1059.230218
3.203376,67.933781,225.511167,1061.481985
3.213376,67.888253,226.179906,1063.740440
3.223376,67.842343,226.848253,1066.005581
3.233376,67.795797,227.516211,1068.277404
3.243376,67.749060,228.183784,1070.555904
3.253376,67.701905,228.850976,1072.841078
3.263376,67.654660,229.517792,1075.132923
3.273376,67.606928,230.184232,1077.431433
3.283376,67.558800,230.850295,1079.736606
3.293376,67.509890,231.515976,1082.048438
3.303376,67.460941,232.181270,1084.366924
3.313376,67.411723,232.846172,1086.692062
3.323376,67.362420,233.510677,1089.023846
3.333376,67.312641,234.174778,1091.362274
3.343376,67.262739,234.838464,1093.707340
3.353376,67.212768,235.501727,1096.059042
3.363376,67.162739,236.164555,1098.417374
3.373376,67.112561,236.826940,1100.782331
3.383376,67.062046,237.488867,1103.153911
3.393376,67.010991,238.150321,1105.532107
3.403376,66.959786,238.811286,1107.916916
3.413376,66.908418,239.471748,1110.308331
3.423376,66.856981,240.131696,1112.706349
3.433376,66.812422,240.791146,1115.110963
3.443376,66.770314,241.450134,1117.522170
3.453376,66.728356,242.108674,1119.939965
3.463376,66.686366,242.766754,1122.364342
3.473376,66.644258,243.424356,1124.795298
3.483376,66.602546,244.081470,1127.232828
3.493376,66.560837,244.738097,1129.676926
3.503376,66.518825,245.394233,1132.127588
3.513376,66.476734,246.049871,1134.584809
3.523376,66.434619,246.705004,1137.048584
3.533376,66.392357,247.359630,1139.518907
3.543376,66.350021,248.013751,1141.995775
3.553376,66.307489,248.667367,1144.479181
3.563376,66.264865,249.320480,1146.969120
3.573376,66.221977,249.973093,1149.465589
3.583376,66.179000,250.625211,1151.968581
3.593376,66.135707,251.276839,1154.478091
3.603376,66.091858,251.927984,1156.994116
3.613376,66.047636,252.578649,1159.516649
3.623376,66.003240,253.228844,1162.045687
3.633376,65.958593,253.878576,1164.581225
3.643376,65.913591,254.527856,1167.123257
3.653376,65.868406,255.176694,1169.671780
3.663376,65.822909,255.825097,1172.226790
3.673376,65.777108,256.473075,1174.788281
3.683376,65.731146,257.120635,1177.356250
3.693376,65.684911,257.767786,1179.930692
3.703376,65.638164,258.414532,1182.511604
3.713376,65.591002,259.060877,1185.098981
3.723376,65.543701,259.706823,1187.692820
3.733376,65.496265,260.352373,1190.293117
3.743376,65.448679,260.997529,1192.899866
3.753376,65.401035,261.642292,1195.513066
3.763376,65.353325,262.286659,1198.132711
3.773376,65.305486,262.930628,1200.758798
3.783376,65.257422,263.574197,1203.391322
3.793376,65.208831,264.217374,1206.030280
3.803376,65.160272,264.860163,1208.675668
3.813376,65.111376,265.502555,1211.327482
3.823376,65.062501,266.144534,1213.985718
3.833376,65.013753,266.786085,1216.650371
3.843376,64.965052,267.427196,1219.321438
3.853376,64.916451,268.067854,1221.998914
3.863376,64.867918,268.708045,1224.682794
3.873376,64.819460,269.347752,1227.373073
3.883376,64.771125,269.986958,1230.069747
3.893376,64.722537,270.625647,1232.772811
3.903376,64.674010,271.263804,1235.482258
3.913376,64.625441,271.901414,1238.198085
3.923376,64.576965,272.538464,1240.920285
3.933376,64.528520,273.174943,1243.648852
3.943376,64.480076,273.810841,1246.383782
3.953376,64.429983,274.446144,1249.125067
3.963376,64.350110,275.080708,1251.872702
3.973376,64.269817,275.714372,1254.626678
3.983376,64.188905,276.347079,1257.386986
3.993376,64.107568,276.978857,1260.153617
4.003376,64.025854,277.609737,1262.926561
4.013376,63.943674,278.239715,1265.705808
4.023376,63.860989,278.868777,1268.491352
4.033376,63.777898,279.496927,1271.283181
4.043376,63.694139,280.124179,1274.081287
4.053376,63.609834,280.750546,1276.885662
4.063376,63.524766,281.376036,1279.696295
4.073376,63.438930,282.000653,1282.513179
4.083376,63.352500,282.624407,1285.336305
4.093376,63.265526,283.247309,1288.165665
4.103376,63.177967,283.869367,1291.001249
4.113376,63.090516,284.490584,1293.843049
4.123376,63.003399,285.110944,1296.691058
4.133376,62.915695,285.730435,1299.545265
4.143376,62.827477,286.349063,1302.405663
4.153376,62.738370,286.966834,1305.272244
4.163376,62.648833,287.583757,1308.144997
4.173376,62.558794,288.199833,1311.023916
4.183376,62.468301,288.815063,1313.908991
4.193376,62.377411,289.429452,1316.800214
4.203376,62.286140,290.043002,1319.697577
4.213376,62.194497,290.655712,1322.601072
4.223376,62.102500,291.267580,1325.510689
4.233376,62.009991,291.878602,1328.426420
4.243376,61.917060,292.488772,1331.348258
4.253376,61.823814,293.098083,1334.276193
4.263376,61.730308,293.706528,1337.210217
4.273376,61.636575,294.314098,1340.150321
4.283376,61.542605,294.920785,1343.096496
4.293376,61.448441,295.526577,1346.048733
4.303376,61.353888,296.131465,1349.007024
4.313376,61.259004,296.735434,1351.971360
4.323376,61.164699,297.338478,1354.941730
4.333376,61.070633,297.940594,1357.918126
4.343376,60.976339,298.541775,1360.900539
4.353376,60.881880,299.142012,1363.888958
4.363376,60.787168,299.741293,1366.883376
4.373376,60.692116,300.339606,1369.883781
4.383376,60.596710,300.936942,1372.890165
4.393376,60.501081,301.533295,1375.902517
4.403376,60.405200,302.128657,1378.920827
4.413376,60.309036,302.723023,1381.945086
4.423376,60.212624,303.316388,1384.975284
4.433376,60.115905,303.908749,1388.011411
4.441570,60.031521,304.393378,1390.503692
4.442850,60.015470,304.469045,1390.893521
4.444131,59.999440,304.544690,1391.283446
4.445411,59.983403,304.620315,1391.673468
4.446692,59.967372,304.695918,1392.063586
4.447972,59.951327,304.771500,1392.453802
4.450533,59.919193,304.922602,1393.234523
4.453094,59.887092,305.073619,1394.015631
4.455655,59.854961,305.224553,1394.797126
4.458217,59.822781,305.375403,1395.579007
4.462838,59.764693,305.647402,1396.990905
4.467459,59.706583,305.919128,1398.404059
4.472081,59.648390,306.190582,1399.818468
4.476702,59.590151,306.461764,1401.234131
4.481324,59.531841,306.732674,1402.651046
4.488366,59.442870,307.144979,1404.812615
4.495408,59.353749,307.556655,1406.977086
4.502451,59.264487,307.967704,1409.144453
4.509493,59.175073,308.378129,1411.314713
4.516535,59.089991,308.787945,1413.487861
4.526040,58.983004,309.340138,1416.425373
4.535544,58.875809,309.891338,1419.368129
4.545049,58.768418,310.441560,1422.316118
4.554553,58.660145,310.990793,1425.269333
4.564058,58.550813,311.539027,1428.227763
4.573563,58.438719,312.086253,1431.191399
4.583563,58.284965,312.660753,1434.315135
4.593563,58.130936,313.233788,1437.444609
4.603563,57.976667,313.805292,1440.579806
4.613563,57.822143,314.375299,1443.720710
4.623563,57.667407,314.943844,1446.867307
4.633563,57.506632,315.510888,1450.019582
4.643563,57.303435,316.076191,1453.177519
4.653563,57.100028,316.639514,1456.341099
4.663563,56.896362,317.200787,1459.510302
