# Time (s), acceleration Magnitude (m/s²), Vz (m/s), Z (m)
0.000000,71.299637,0.000000,697.000000
0.005786,71.308086,0.407319,697.002357
0.011572,71.316499,0.814687,697.007070
0.021572,71.330954,1.518818,697.018738
0.031572,71.345275,2.223092,697.037448
0.041572,71.359478,2.927506,697.063201
0.051572,71.373556,3.632060,697.095998
0.061572,71.387428,4.336752,697.135842
0.071572,71.401169,5.041580,697.182734
0.081572,71.414729,5.746543,697.236675
0.091572,71.428131,6.451639,697.297666
0.101572,71.441496,7.156867,697.365708
0.111572,71.454676,7.862226,697.440804
0.121572,71.467721,8.567715,697.522953
0.131572,71.480636,9.273331,697.612159
0.141572,71.493374,9.979075,697.708421
0.151572,71.506040,10.684943,697.811741
0.161572,71.518555,11.390936,697.922120
0.171572,71.530912,12.097052,698.039560
0.181572,71.543161,12.803290,698.164062
0.191572,71.555193,13.509647,698.295626
0.201572,71.567109,14.216122,698.434255
0.211572,71.578922,14.922715,698.579949
0.221572,71.590632,15.629423,698.732710
0.231572,71.602238,16.336247,698.892538
0.241572,71.613754,17.043185,699.059435
0.251572,71.624994,17.750235,699.233402
0.261572,71.636098,18.457396,699.414440
0.271572,71.647100,19.164666,699.602551
0.281572,71.658001,19.872043,699.797734
0.291572,71.668811,20.579528,699.999992
0.301572,71.679521,21.287119,700.209325
0.311572,71.689945,21.994815,700.425735
0.321572,71.700237,22.702612,700.649222
0.331572,71.710429,23.410511,700.879788
0.341572,71.720526,24.118510,701.117433
0.351572,71.730523,24.826608,701.362159
0.361572,71.740420,25.534805,701.613965
0.371572,71.750024,26.243098,701.872855
0.381572,71.759502,26.951484,702.138828
0.391572,71.768881,27.659964,702.411885
0.401572,71.778159,28.368536,702.692027
0.411572,71.787338,29.077199,702.979256
0.421572,71.796416,29.785953,703.273572
0.431572,71.805194,30.494794,703.574975
0.441572,71.813849,31.203722,703.883468
0.451572,71.822404,31.912734,704.199050
0.461572,71.830858,32.621830,704.521723
0.471572,71.839211,33.331010,704.851487
0.481572,71.847460,34.040271,705.188343
0.491572,71.855401,34.749612,705.532293
0.501572,71.863225,35.459031,705.883336
0.511572,71.870948,36.168527,706.241474
0.521572,71.878570,36.878098,706.606707
0.531572,71.886083,37.587745,706.979036
0.541572,71.893493,38.297464,707.358462
0.551572,71.900591,39.007256,707.744986
0.561572,71.907576,39.717117,708.138608
0.571572,71.914456,40.427046,708.539328
0.581572,71.921226,41.137043,708.947149
0.591572,71.927893,41.847106,709.362070
0.601572,71.934458,42.557234,709.784091
0.611572,71.940661,43.267426,710.213215
0.621572,71.946748,43.977678,710.649440
0.623304,71.947790,44.100673,710.725699
0.624496,71.966114,44.185146,710.778394
0.625689,71.966752,44.269620,710.831190
0.628074,71.968219,44.438571,710.936984
0.630459,71.969602,44.607525,711.043180
0.632844,71.970956,44.776484,711.149779
0.642844,71.976702,45.484890,711.601086
0.652844,71.982564,46.193359,712.059477
0.662844,71.988266,46.901885,712.524953
0.672844,71.994021,47.610462,712.997515
0.682844,71.999704,48.319082,713.477163
0.692844,72.005059,49.027737,713.963897
0.702844,72.010439,49.736418,714.457717
0.712844,72.015783,50.445118,714.958625
0.722844,72.021112,51.153828,715.466620
0.726867,72.023200,51.438951,715.672990
0.730891,72.025344,51.724073,715.880507
0.734914,72.027628,52.009194,716.089172
0.738937,72.029801,52.294315,716.298983
0.748937,72.035139,53.003017,716.825470
0.758937,72.040375,53.711699,717.359044
0.768937,72.045766,54.420353,717.899704
0.778937,72.050790,55.128969,718.447450
0.788937,72.055862,55.837535,719.002283
0.798937,72.061014,56.546042,719.564201
0.808937,72.066160,57.254480,720.133204
0.818937,72.071161,57.962838,720.709290
0.828937,72.076365,58.671105,721.292460
0.838937,72.081693,59.379272,721.882712
0.848937,72.086981,60.087327,722.480045
0.858937,72.091889,60.795257,723.084458
0.868937,72.096945,61.503047,723.695950
0.878937,72.102057,62.210686,724.314519
0.888937,72.107312,62.918161,724.940163
0.898937,72.112354,63.625458,725.572881
0.908937,72.117666,64.332564,726.212672
0.918937,72.123133,65.039467,726.859532
0.928937,72.128342,65.746150,727.513460
0.938937,72.133675,66.452598,728.174454
0.948937,72.138806,67.158796,728.842511
0.958937,72.144232,67.864726,729.517629
0.968937,72.149719,68.570374,730.199805
0.978937,72.155160,69.275723,730.889036
0.988937,72.160918,69.980758,731.585318
0.998937,72.166510,70.685460,732.288650
1.008937,72.172391,71.389813,732.999026
1.018937,72.178075,72.093799,733.716445
1.028937,72.183623,72.797397,734.440901
1.038937,72.189498,73.500588,735.172391
1.048937,72.195238,74.203353,735.910911
1.058937,72.201348,74.905671,736.656457
1.068937,72.207722,75.607516,737.409023
1.078937,72.214520,76.308870,738.168605
1.088937,72.221453,77.009706,738.935199
1.098937,72.228527,77.709998,739.708798
1.108937,72.235294,78.409721,740.489397
1.118937,72.242289,79.108854,741.276990
1.128937,72.249420,79.807376,742.071572
1.138937,72.256612,80.505269,742.873136
1.148937,72.263941,81.202513,743.681675
1.158937,72.271324,81.899089,744.497184
1.168937,72.278750,82.594979,745.319655
1.178937,72.286168,83.290166,746.149081
1.188937,72.293443,83.984633,746.985456
1.198937,72.300625,84.678363,747.828771
1.208937,72.307818,85.371341,748.679020
1.218937,72.315008,86.063554,749.536195
1.228937,72.322202,86.754991,750.400289
1.238937,72.329274,87.445643,751.271293
1.248937,72.336283,88.135501,752.149199
1.258937,72.343263,88.824559,753.034000
1.268937,72.349833,89.512811,753.925688
1.278937,72.356099,90.200254,754.824254
1.288937,72.362355,90.886884,755.729690
1.298937,72.368235,91.572704,756.641988
1.308937,72.374126,92.257717,757.561141
1.318937,72.379558,92.941931,758.487140
1.328937,72.384877,93.625352,759.419977
1.338937,72.389776,94.307992,760.359645
1.348937,72.394351,94.989863,761.306135
1.358937,72.398516,95.670980,762.259439
1.368937,72.402463,96.351362,763.219552
1.378937,72.405668,97.031030,764.186464
1.388937,72.408221,97.710003,765.160170
1.398937,72.410409,98.388306,766.140662
1.408937,72.411843,99.065966,767.127934
1.418937,72.412854,99.743013,768.121979
1.428937,72.413469,100.419480,769.122792
1.438937,72.413189,101.095401,770.130367
1.448937,72.412350,101.770812,771.144699
1.458937,72.411066,102.445750,772.165782
1.468937,72.408892,103.120257,773.193612
1.478937,72.406289,103.794375,774.228186
1.488937,72.402533,104.468145,775.269498
1.498937,72.397864,105.141609,776.317547
1.508937,72.392519,105.814810,777.372330
1.518937,72.386389,106.487794,778.433843
1.528937,72.379544,107.160609,779.502085
1.538937,72.371859,107.833300,780.577055
1.548937,72.363359,108.505914,781.658751
1.558937,72.354183,109.178497,782.747173
1.568937,72.344258,109.851096,783.842321
1.578937,72.333602,110.523757,784.944195
1.588937,72.322044,111.196523,786.052796
1.598937,72.309958,111.869439,787.168126
1.608937,72.296588,112.542543,788.290186
1.618937,72.282517,113.215874,789.418978
1.628937,72.267757,113.889469,790.554504
1.638937,72.252394,114.563364,791.696768
1.648937,72.236515,115.237594,792.845772
1.658937,72.219985,115.912192,794.001521
1.668937,72.202907,116.587184,795.164018
1.678937,72.185312,117.262597,796.333266
1.688937,72.167326,117.938452,797.509271
1.698937,72.148880,118.614772,798.692037
1.708937,72.130132,119.291572,799.881568
1.718937,72.110845,119.968864,801.077870
1.728937,72.090964,120.646657,802.280947
1.738937,72.070865,121.324955,803.490805
1.748937,72.050654,122.003763,804.707448
1.758937,72.030257,122.683079,805.930882
1.768937,72.009769,123.362903,807.161111
1.778937,71.989353,124.043226,808.398141
1.788937,71.968763,124.724040,809.641977
1.798937,71.948403,125.405330,810.892624
1.808937,71.928075,126.087083,812.150085
1.818937,71.907887,126.769279,813.414367
1.828937,71.887727,127.451896,814.685472
1.838937,71.867441,128.134908,815.963406
1.848937,71.847396,128.818286,817.248172
1.858937,71.827664,129.502001,818.539773
1.868937,71.808272,130.186023,819.838213
1.878937,71.789234,130.870319,821.143494
1.888937,71.770418,131.554853,822.455620
1.898937,71.751973,132.239587,823.774592
1.908937,71.734112,132.924482,825.100412
1.918937,71.716386,133.609500,826.433082
1.928937,71.699222,134.294597,827.772603
1.938937,71.682520,134.979732,829.118974
1.948937,71.665866,135.664858,830.472197
1.958937,71.649491,136.349924,831.832271
1.968937,71.634186,137.034873,833.199195
1.978937,71.620033,137.719643,834.572968
1.988937,71.606016,138.404175,835.953587
1.998937,71.592584,139.088418,837.341051
2.008937,71.579568,139.772324,838.735355
2.018937,71.567089,140.455848,840.136496
2.028937,71.554983,141.138945,841.544470
2.038937,71.543235,141.821568,842.959273
2.048937,71.531793,142.503672,844.380900
2.058937,71.520717,143.185216,845.809345
2.068937,71.509659,143.866156,847.244602
2.078937,71.498891,144.546454,848.686666
2.088937,71.488630,145.226075,850.135529
2.098937,71.478268,145.904988,851.591185
2.108937,71.467710,146.583168,853.053626
2.118937,71.457297,147.260593,854.522846
2.128937,71.447101,147.937243,855.998835
2.138937,71.437122,148.613100,857.481588
2.148937,71.427121,149.288149,858.971095
2.158937,71.416924,149.962379,860.467348
2.168937,71.406748,150.635782,861.970340
2.178937,71.395799,151.308352,863.480061
2.188937,71.385014,151.980091,864.996504
2.198937,71.373777,152.651006,866.519660
2.208937,71.362181,153.321108,868.049521
2.218937,71.350143,153.990413,869.586080
2.228937,71.337828,154.658944,871.129327
2.238937,71.325006,155.326727,872.679256
2.248937,71.311274,155.993792,874.235859
2.258937,71.297109,156.660175,875.799130
2.268937,71.282168,157.325914,877.369061
2.278937,71.266582,157.991055,878.945646
2.288937,71.249873,158.655644,880.528880
2.298937,71.232421,159.319730,882.118757
2.308937,71.214001,159.983367,883.715273
2.318937,71.194479,160.646609,885.318423
2.328937,71.173574,161.309512,886.928204
2.338937,71.151431,161.972129,888.544612
2.348937,71.128130,162.634518,890.167646
2.358937,71.103958,163.296736,891.797302
2.368937,71.078623,163.958842,893.433580
2.378937,71.052369,164.620893,895.076479
2.388937,71.025054,165.282942,896.725998
2.398937,70.996613,165.945043,898.382138
2.408937,70.966942,166.607249,900.044899
2.418937,70.935710,167.269625,901.714283
2.428937,70.903728,167.932226,903.390292
2.438937,70.871036,168.595092,905.072929
2.448937,70.837831,169.258249,906.762195
2.458937,70.804167,169.921719,908.458095
2.468937,70.770198,170.585521,910.160631
2.478937,70.735598,171.249669,911.869806
2.488937,70.700500,171.914165,913.585625
2.498937,70.665407,172.579008,915.308091
2.508937,70.630284,173.244191,917.037206
2.518937,70.595324,173.909701,918.772976
2.528937,70.560617,174.575522,920.515402
2.538937,70.525885,175.241628,922.264487
2.548937,70.491552,175.907990,924.020235
2.558937,70.457526,176.574572,925.782648
2.568937,70.423989,177.241337,927.551727
2.578937,70.390887,177.908242,929.327475
2.588937,70.357405,178.575236,931.109892
2.598937,70.324441,179.242265,932.898980
2.608937,70.291939,179.909273,934.694737
2.618937,70.259978,180.576206,936.497165
2.628937,70.228413,181.243006,938.306261
2.638937,70.196748,181.909609,940.122024
2.648937,70.165723,182.575953,941.944452
2.658937,70.135112,183.241974,943.773542
2.668937,70.105020,183.907610,945.609291
2.678937,70.075484,184.572803,947.451693
2.688937,70.046281,185.237490,949.300745
2.698937,70.017580,185.901611,951.156441
2.708937,69.989409,186.565110,953.018775
2.718937,69.961627,187.227931,954.887741
2.728937,69.934290,187.890022,956.763331
2.738937,69.907343,188.551336,958.645539
2.748937,69.880646,189.211828,960.534355
2.758937,69.854326,189.871457,962.429772
2.768937,69.828335,190.530189,964.331781
2.778937,69.802497,191.187995,966.240373
2.788937,69.776149,191.844851,968.155538
2.798937,69.750021,192.500737,970.077267
2.808937,69.723698,193.155641,972.005550
2.818937,69.697416,193.809562,973.940376
2.828937,69.670730,194.462505,975.881738
2.838937,69.643801,195.114480,977.829623
2.848937,69.616373,195.765506,979.784024
2.858937,69.588339,196.415607,981.744930
2.868937,69.559734,197.064819,983.712333
2.878937,69.529882,197.713178,985.686224
2.888937,69.499099,198.360727,987.666594
2.898937,69.467284,199.007517,989.653436
2.908937,69.434132,199.653602,991.646742
2.918937,69.399551,200.299040,993.646506
2.928937,69.363449,200.943890,995.652721
2.938937,69.326157,201.588216,997.665382
2.948937,69.287569,202.232083,999.684484
2.958937,69.247658,202.875560,1001.710022
2.968937,69.206504,203.518710,1003.741994
2.978937,69.163957,204.161598,1005.780396
2.988937,69.120201,204.804282,1007.825225
2.998937,69.075334,205.446818,1009.876481
3.008937,69.029497,206.089259,1011.934161
3.018937,68.982801,206.731652,1013.998266
3.028937,68.935184,207.374038,1016.068794
3.038937,68.886467,208.016446,1018.145747
3.048937,68.837156,208.658901,1020.229123
3.058937,68.787545,209.301420,1022.318925
3.068937,68.737569,209.944016,1024.415152
3.078937,68.687381,210.586692,1026.517805
3.088937,68.637108,211.229442,1028.626886
3.098937,68.587006,211.872253,1030.742394
3.108937,68.537182,212.515107,1032.864331
3.118937,68.487531,213.157976,1034.992697
3.128937,68.438004,213.800827,1037.127491
3.138937,68.388951,214.443618,1039.268713
3.148937,68.340274,215.086304,1041.416363
3.158937,68.291905,215.728833,1043.570438
3.168937,68.243629,216.371150,1045.730939
3.178937,68.195634,217.013194,1047.897861
3.188937,68.148168,217.654901,1050.071201
3.198937,68.101178,218.296209,1052.250957
3.208937,68.054689,218.937056,1054.437124
3.218937,68.008723,219.577377,1056.629697
3.228937,67.962936,220.217109,1058.828670
3.238937,67.917674,220.856188,1061.034037
3.248937,67.872835,221.494556,1063.245791
3.258937,67.828451,222.132156,1065.463925
3.268937,67.784401,222.768938,1067.688431
3.278937,67.740445,223.404853,1069.919301
3.288937,67.696426,224.039857,1072.156525
3.298937,67.652544,224.673913,1074.400095
3.308937,67.608898,225.306991,1076.650000
3.318937,67.565207,225.939073,1078.906232
3.328937,67.521168,226.570145,1081.168778
3.338937,67.477143,227.200199,1083.437631
3.348937,67.432706,227.829239,1085.712779
3.358937,67.387919,228.457278,1087.994212
3.368937,67.344430,229.084342,1090.281921
3.378937,67.308154,229.710502,1092.575896
3.388937,67.271119,230.335833,1094.876129
3.398937,67.232886,230.960388,1097.182610
3.408937,67.193907,231.584204,1099.495334
3.418937,67.153887,232.207327,1101.814292
3.428937,67.113404,232.829814,1104.139478
3.438937,67.071891,233.451728,1106.470887
3.448937,67.029127,234.073127,1108.808511
3.458937,66.985373,234.694071,1111.152348
3.468937,66.940310,235.314620,1113.502391
3.478937,66.894181,235.934834,1115.858639
3.488937,66.847063,236.554769,1118.221087
3.498937,66.798677,237.174478,1120.589733
3.508937,66.749367,237.794003,1122.964576
3.518937,66.699360,238.413384,1125.345613
3.528937,66.648842,239.032655,1127.732843
3.538937,66.597965,239.651844,1130.126266
3.548937,66.546823,240.270969,1132.525880
3.558937,66.495575,240.890040,1134.931685
3.568937,66.444351,241.509057,1137.343681
3.578937,66.393226,242.128015,1139.761866
3.588937,66.342329,242.746898,1142.186241
3.598937,66.291558,243.365682,1144.616804
3.608937,66.240995,243.984337,1147.053554
3.618937,66.190853,244.602822,1149.496490
3.628937,66.141254,245.221096,1151.945610
3.638937,66.092200,245.839112,1154.400911
3.648937,66.043763,246.456818,1156.862391
3.658937,65.995895,247.074160,1159.330046
3.668937,65.948564,247.691081,1161.803873
3.678937,65.901914,248.307523,1164.283866
3.688937,65.855771,248.923429,1166.770021
3.698937,65.810198,249.538743,1169.262333
3.708937,65.764745,250.153410,1171.760794
3.718937,65.719866,250.767379,1174.265399
3.728937,65.675442,251.380603,1176.776139
3.738937,65.631410,251.993044,1179.293008
3.748937,65.587747,252.604669,1181.815997
3.758937,65.544349,253.215452,1184.345099
3.768937,65.501197,253.825374,1186.880303
3.778937,65.458017,254.434424,1189.421603
3.788937,65.414842,255.042601,1191.968989
3.798937,65.371424,255.649910,1194.522452
3.808937,65.327427,256.256364,1197.081984
3.818937,65.282968,256.861982,1199.647577
3.828937,65.238558,257.466781,1202.219221
3.838937,65.193886,258.070781,1204.796910
3.848937,65.148401,258.674010,1207.380634
3.858937,65.102028,259.276517,1209.970388
3.868937,65.054534,259.878358,1212.566162
3.878937,65.000964,260.479570,1215.167953
3.888937,64.919218,261.080076,1217.775751
3.898937,64.835845,261.679791,1220.389551
3.908937,64.751078,262.278727,1223.009345
3.918937,64.665026,262.876967,1225.635124
3.928937,64.577782,263.474587,1228.266882
3.938937,64.489435,264.071622,1230.904613
3.948937,64.400140,264.668091,1233.548312
3.958937,64.310088,265.264022,1236.197974
3.968937,64.219356,265.859441,1238.853591
3.978937,64.127954,266.454366,1241.515161
3.988937,64.036018,267.048797,1244.182677
3.998937,63.943894,267.642725,1246.856135
4.008937,63.851732,268.236137,1249.535530
4.018937,63.759526,268.829011,1252.220856
4.028937,63.667494,269.421320,1254.912108
4.038937,63.575664,270.013027,1257.609280
4.048937,63.483992,270.604090,1260.312366
4.058937,63.392538,271.194460,1263.021360
4.068937,63.301118,271.784087,1265.736253
4.078937,63.210001,272.372916,1268.457039
4.088937,63.119199,272.960891,1271.183709
4.098937,63.028691,273.547959,1273.916254
4.108937,62.938471,274.134067,1276.654665
4.118937,62.848547,274.719166,1279.398932
4.128937,62.758823,275.303208,1282.149044
4.138937,62.669277,275.886152,1284.904992
4.148937,62.579610,276.467961,1287.666764
4.158937,62.489801,277.048604,1290.434347
4.168937,62.399939,277.628058,1293.207732
4.178937,62.309939,278.206308,1295.986905
4.188937,62.219659,278.783348,1298.771854
4.198937,62.128958,279.359179,1301.562568
4.208937,62.037741,279.933808,1304.359033
4.218937,61.945849,280.507251,1307.161240
4.228937,61.853217,281.079531,1309.969175
4.238937,61.759282,281.650674,1312.782827
4.248937,61.664424,282.220711,1315.602184
4.258937,61.568538,282.789679,1318.427237
4.268937,61.471552,283.357618,1321.257975
4.278937,61.373402,283.924568,1324.094386
4.288937,61.274153,284.490571,1326.936463
4.298937,61.173738,285.055666,1329.784195
4.308937,61.072065,285.619890,1332.637573
4.318937,60.969454,286.183275,1335.496590
4.328937,60.865949,286.745849,1338.361236
4.338937,60.761761,287.307639,1341.231504
4.348937,60.656940,287.868661,1344.107386
4.358937,60.551601,288.428927,1346.988875
4.368937,60.445872,288.988443,1349.875962
4.378937,60.339599,289.547203,1352.768641
4.388937,60.233177,290.105199,1355.666904
4.398937,60.126706,290.662414,1358.570742
4.408937,60.020207,291.218828,1361.480149
4.418937,59.916492,291.774424,1364.395116
4.428937,59.825877,292.329239,1367.315635
4.438937,59.735551,292.883306,1370.241699
4.448937,59.620292,293.436503,1373.173298
4.450434,59.602706,293.519231,1373.612672
4.451931,59.585108,293.601933,1374.052170
4.453428,59.567553,293.684611,1374.491792
4.454925,59.549991,293.767265,1374.931538
4.456422,59.532443,293.849894,1375.371407
4.459417,59.497362,294.015077,1376.251516
4.462411,59.462309,294.180159,1377.132120
4.465405,59.427313,294.345139,1378.013218
4.468399,59.392341,294.510017,1378.894810
4.473249,59.335773,294.776812,1380.323577
4.478098,59.261314,295.043291,1381.753636
4.482947,59.185632,295.309411,1383.184987
4.487796,59.110001,295.575152,1384.617627
4.492645,59.034389,295.840512,1386.051555
4.499327,58.930301,296.205535,1388.029533
4.506009,58.826262,296.569829,1390.009948
4.512691,58.722274,296.933387,1391.992794
4.519372,58.618309,297.296199,1393.978067
4.526054,58.514340,297.658257,1395.965762
4.535449,58.343927,298.165936,1398.764571
4.544844,58.150733,298.671808,1401.568141
4.554239,57.957296,299.175726,1404.376454
4.563633,57.763530,299.677674,1407.189492
4.573028,57.569338,300.177696,1410.007237
4.582423,57.374668,300.675817,1412.829671
4.592423,57.159216,301.203902,1415.839071
4.602423,56.930818,301.729707,1418.853741
4.612423,56.701653,302.253178,1421.873658
4.622423,56.471659,302.774337,1424.898797
4.632423,56.240802,303.293235,1427.929137
4.642423,56.009066,303.809906,1430.964655
4.652423,55.776471,304.324369,1434.005328
