# Time (s), acceleration Magnitude (m/s²), Vz (m/s), Z (m)
0.000000,71.193919,0.000000,697.000000
0.005759,71.202359,0.409243,697.002357
0.011518,71.210763,0.818535,697.007070
0.021518,71.225274,1.529335,697.018810
0.031518,71.239651,2.240280,697.037658
0.041518,71.253943,2.951368,697.063616
0.051518,71.268124,3.662598,697.096686
0.061518,71.282097,4.373968,697.136869
0.071518,71.295951,5.085477,697.184166
0.081518,71.309633,5.797124,697.238579
0.091518,71.323119,6.508906,697.300109
0.101518,71.336529,7.220823,697.368758
0.111518,71.349814,7.932872,697.444526
0.121518,71.362968,8.645054,697.527416
0.131518,71.375999,9.357366,697.617428
0.141518,71.388832,10.069807,697.714564
0.151518,71.401585,10.782376,697.818825
0.161518,71.414216,11.495072,697.930212
0.171518,71.426693,12.207893,698.048727
0.181518,71.439067,12.920838,698.174371
0.191518,71.451209,13.633905,698.307144
0.201518,71.463241,14.347093,698.447049
0.211518,71.475185,15.060401,698.594087
0.221518,71.487029,15.773827,698.748258
0.231518,71.498774,16.487371,698.909564
0.241518,71.510419,17.201032,699.078006
0.251518,71.521800,17.914808,699.253585
0.261518,71.533052,18.628696,699.436303
0.271518,71.544207,19.342697,699.626160
0.281518,71.555265,20.056808,699.823157
0.291518,71.566225,20.771029,700.027296
0.301518,71.577099,21.485359,700.238578
0.311518,71.587692,22.199797,700.457004
0.321518,71.598158,22.914339,700.682574
0.331518,71.608528,23.628986,700.915291
0.341518,71.618802,24.343735,701.155155
0.351518,71.628985,25.058586,701.402166
0.361518,71.639074,25.773539,701.656327
0.371518,71.648875,26.488591,701.917637
0.381518,71.658554,27.203740,702.186099
0.391518,71.668139,27.918985,702.461713
0.401518,71.677629,28.634325,702.744479
0.411518,71.687024,29.349760,703.034400
0.421518,71.696324,30.065288,703.331475
0.431518,71.705332,30.780908,703.635706
0.441518,71.714222,31.496616,703.947093
0.451518,71.723015,32.212413,704.265638
0.461518,71.731713,32.928297,704.591342
0.471518,71.740317,33.644268,704.924205
0.481518,71.748826,34.360324,705.264228
0.491518,71.757033,35.076463,705.611411
0.501518,71.765126,35.792684,705.965757
0.511518,71.773123,36.508985,706.327265
0.521518,71.781025,37.225365,706.695937
0.531518,71.788833,37.941824,707.071773
0.541518,71.796540,38.658360,707.454774
0.551518,71.803939,39.374972,707.844940
0.561518,71.811231,40.091657,708.242273
0.571518,71.818427,40.808414,708.646774
0.581518,71.825528,41.525242,709.058442
0.591518,71.832526,42.242141,709.477279
0.601518,71.839425,42.959109,709.903285
0.611518,71.845972,43.676144,710.336462
0.621518,71.852415,44.393244,710.776808
0.623754,71.853842,44.553621,710.876266
0.624980,71.864507,44.641531,710.931019
0.626207,71.865233,44.729442,710.985879
0.628660,71.866792,44.905266,711.095815
0.631113,71.868316,45.081094,711.206182
0.633566,71.870027,45.256925,711.316981
0.643566,71.876110,45.973771,711.773134
0.653566,71.882278,46.690679,712.236457
0.663566,71.888309,47.407650,712.706948
0.673566,71.894230,48.124683,713.184610
0.683566,71.900009,48.841779,713.669442
0.693566,71.905303,49.558936,714.161446
0.703566,71.910625,50.276151,714.660621
0.713566,71.915753,50.993428,715.166969
0.723566,71.920713,51.710763,715.680490
0.729952,71.923996,52.168890,716.012181
0.736338,71.927059,52.627042,716.346798
0.742724,71.930048,53.085218,716.684341
0.749110,71.933103,53.543419,717.024810
0.759110,71.937597,54.260969,717.563832
0.769110,71.942074,54.978578,718.110029
0.779110,71.946223,55.696246,718.663403
0.789110,71.950109,56.413973,719.223954
0.799110,71.953993,57.131757,719.791683
0.809110,71.957736,57.849599,720.366590
0.819110,71.961284,58.567498,720.948675
0.829110,71.964770,59.285455,721.537940
0.839110,71.968216,60.003470,722.134384
0.849110,71.971360,60.721543,722.738009
0.859110,71.974295,61.439672,723.348815
0.869110,71.977035,62.157856,723.966803
0.879110,71.979628,62.876094,724.591973
0.889110,71.982100,63.594387,725.224325
0.899110,71.984600,64.312734,725.863861
0.909110,71.986711,65.031135,726.510580
0.919110,71.988823,65.749589,727.164484
0.929110,71.990897,66.468096,727.825572
0.939110,71.992534,67.186655,728.493846
0.949110,71.993952,67.905263,729.169305
0.959110,71.995394,68.623919,729.851951
0.969110,71.996784,69.342624,730.541784
0.979110,71.997717,70.061376,731.238804
0.989110,71.998788,70.780174,731.943011
0.999110,71.999695,71.499017,732.654407
1.009110,72.000607,72.217906,733.372992
1.019110,72.001110,72.936839,734.098766
1.029110,72.001389,73.655812,734.831729
1.039110,72.001616,74.374825,735.571882
1.049110,72.001599,75.093875,736.319225
1.059110,72.001561,75.812962,737.073760
1.069110,72.001417,76.532084,737.835485
1.079110,72.001207,77.251241,738.604401
1.089110,72.000755,77.970430,739.380510
1.099110,72.000224,78.689651,740.163810
1.109110,71.999192,79.408899,740.954303
1.119110,71.998275,80.128172,741.751988
1.129110,71.997103,80.847468,742.556866
1.139110,71.995830,81.566786,743.368938
1.149110,71.994569,82.286124,744.188202
1.159110,71.993069,83.005480,745.014660
1.169110,71.991545,83.724852,745.848312
1.179110,71.989787,84.444239,746.689157
1.189110,71.987841,85.163636,747.537197
1.199110,71.985608,85.883042,748.392430
1.209110,71.983284,86.602452,749.254857
1.219110,71.981079,87.321866,750.124479
1.229110,71.978534,88.041282,751.001295
1.239110,71.975948,88.760697,751.885305
1.249110,71.973237,89.480110,752.776509
1.259110,71.970347,90.199516,753.674907
1.269110,71.967122,90.918914,754.580499
1.279110,71.963794,91.638298,755.493285
1.289110,71.960231,92.357667,756.413265
1.299110,71.956765,93.077019,757.340438
1.309110,71.953035,93.796351,758.274805
1.319110,71.949156,94.515660,759.216365
1.329110,71.945262,95.234945,760.165118
1.339110,71.941269,95.954203,761.121064
1.349110,71.937123,96.673433,762.084202
1.359110,71.933015,97.392633,763.054533
1.369110,71.928534,98.111800,764.032055
1.379110,71.923897,98.830930,765.016769
1.389110,71.918987,99.550021,766.008673
1.399110,71.913922,100.269068,767.007769
1.409110,71.908637,100.988071,768.014055
1.419110,71.903256,101.707025,769.027530
1.429110,71.897939,102.425930,770.048195
1.439110,71.892408,103.144785,771.076048
1.449110,71.886828,103.863587,772.111090
1.459110,71.881104,104.582335,773.153320
1.469110,71.875202,105.301027,774.202737
1.479110,71.869278,106.019660,775.259340
1.489110,71.863149,106.738234,776.323130
1.499110,71.856473,107.456744,777.394105
1.509110,71.849701,108.175186,778.472265
1.519110,71.842805,108.893559,779.557608
1.529110,71.835856,109.611860,780.650135
1.539110,71.828713,110.330089,781.749845
1.549110,71.821461,111.048243,782.856737
1.559110,71.814186,111.766321,783.970810
1.569110,71.806708,112.484322,785.092063
1.579110,71.799146,113.202244,786.220496
1.589110,71.791445,113.920085,787.356108
1.599110,71.783659,114.637843,788.498897
1.609110,71.775307,115.355515,789.648864
1.619110,71.766806,116.073098,790.806007
1.629110,71.758275,116.790588,791.970326
1.639110,71.749519,117.507985,793.141819
1.649110,71.740622,118.225286,794.320485
1.659110,71.731660,118.942491,795.506324
1.669110,71.722528,119.659596,796.699335
1.679110,71.713254,120.376601,797.899516
1.689110,71.703908,121.093503,799.106867
1.699110,71.694386,121.810301,800.321386
1.709110,71.684801,122.526994,801.543072
1.719110,71.674843,123.243578,802.771925
1.729110,71.664467,123.960050,804.007943
1.739110,71.654044,124.676407,805.251126
1.749110,71.643591,125.392647,806.501471
1.759110,71.632713,126.108769,807.758978
1.769110,71.621924,126.824771,809.023646
1.779110,71.611070,127.540652,810.295473
1.789110,71.599956,128.256412,811.574459
1.799110,71.588858,128.972049,812.860601
1.809110,71.577528,129.687561,814.153899
1.819110,71.566114,130.402949,815.454352
1.829110,71.554266,131.118209,816.761958
1.839110,71.542218,131.833339,818.076716
1.849110,71.529894,132.548336,819.398624
1.859110,71.517404,133.263200,820.727682
1.869110,71.504754,133.977929,822.063888
1.879110,71.492039,134.692523,823.407240
1.889110,71.479105,135.406982,824.757738
1.899110,71.466049,136.121304,826.115379
1.909110,71.452782,136.835490,827.480163
1.919110,71.439583,137.549539,828.852089
1.929110,71.426021,138.263451,830.231154
1.939110,71.412344,138.977226,831.617357
1.949110,71.398097,139.690861,833.010698
1.959110,71.383743,140.404353,834.411174
1.969110,71.369078,141.117702,835.818784
1.979110,71.354378,141.830908,837.233528
1.989110,71.339478,142.543971,838.655402
1.999110,71.324543,143.256890,840.084406
2.009110,71.309247,143.969666,841.520539
2.019110,71.293848,144.682296,842.963799
2.029110,71.278373,145.394780,844.414185
2.039110,71.262894,146.107120,845.871694
2.049110,71.246878,146.819314,847.336327
2.059110,71.230663,147.531358,848.808080
2.069110,71.214169,148.243250,850.286953
2.079110,71.197287,148.954988,851.772945
2.089110,71.180586,149.666570,853.266053
2.099110,71.163462,150.377997,854.766276
2.109110,71.146287,151.089265,856.273612
2.119110,71.128968,151.800373,857.788060
2.129110,71.111435,152.511319,859.309619
2.139110,71.093879,153.222102,860.838286
2.149110,71.076132,153.932719,862.374060
2.159110,71.058302,154.643170,863.916940
2.169110,71.040178,155.353451,865.466923
2.179110,71.021531,156.063559,867.024008
2.189110,71.002652,156.773486,868.588194
2.199110,70.983700,157.483232,870.159478
2.209110,70.964571,158.192793,871.737858
2.219110,70.945321,158.902168,873.323333
2.229110,70.925949,159.611355,874.915901
2.239110,70.906395,160.320351,876.515559
2.249110,70.886936,161.029155,878.122307
2.259110,70.866977,161.737763,879.736142
2.269110,70.847018,162.446172,881.357062
2.279110,70.827113,163.154382,882.985065
2.289110,70.806904,163.862390,884.620149
2.299110,70.786520,164.570194,886.262312
2.309110,70.766018,165.277792,887.911552
2.319110,70.745383,165.985181,889.567867
2.329110,70.724047,166.692357,891.231255
2.339110,70.702425,167.399315,892.901713
2.349110,70.680731,168.106052,894.579240
2.359110,70.658814,168.812567,896.263833
2.369110,70.636895,169.518858,897.955491
2.379110,70.614613,170.224924,899.654210
2.389110,70.592266,170.930762,901.359989
2.399110,70.569636,171.636371,903.072824
2.409110,70.546922,172.341749,904.792715
2.419110,70.523982,173.046895,906.519659
2.429110,70.501020,173.751808,908.253652
2.439110,70.477843,174.456487,909.994694
2.449110,70.454407,175.160930,911.742781
2.459110,70.430948,175.865136,913.497912
2.469110,70.407176,176.569102,915.260083
2.479110,70.382938,177.272826,917.029293
2.489110,70.358234,177.976302,918.805539
2.499110,70.333495,178.679527,920.588818
2.509110,70.308375,179.382499,922.379129
2.519110,70.283251,180.085217,924.176467
2.529110,70.257888,180.787679,925.980832
2.539110,70.232401,181.489882,927.792220
2.549110,70.206773,182.191825,929.610629
2.559110,70.180865,182.893506,931.436056
2.569110,70.154929,183.594922,933.268498
2.579110,70.128868,184.296073,935.107953
2.589110,70.102518,184.996956,936.954419
2.599110,70.075911,185.697568,938.807891
2.609110,70.049105,186.397906,940.668369
2.619110,70.022197,187.097968,942.535849
2.629110,69.994990,187.797751,944.410327
2.639110,69.966638,188.497251,946.291803
2.649110,69.937745,189.196457,948.180272
2.659110,69.908702,189.895363,950.075731
2.669110,69.879501,190.593970,951.978178
2.679110,69.849679,191.292274,953.887609
2.689110,69.819600,191.990272,955.804022
2.699110,69.789339,192.687961,957.727414
2.709110,69.758937,193.385338,959.657780
2.719110,69.728295,194.082404,961.595119
2.729110,69.697371,194.779156,963.539427
2.739110,69.666378,195.475593,965.490701
2.749110,69.635021,196.171712,967.448938
2.759110,69.603579,196.867512,969.414135
2.769110,69.571954,197.562991,971.386287
2.779110,69.540063,198.258149,973.365393
2.789110,69.507341,198.952979,975.351449
2.799110,69.474482,199.647478,977.344452
2.809110,69.441346,200.341642,979.344398
2.819110,69.408113,201.035471,981.351284
2.829110,69.374659,201.728963,983.365106
2.839110,69.340951,202.422117,985.385862
2.849110,69.306912,203.114928,987.413547
2.859110,69.272858,203.807396,989.448159
2.869110,69.238581,204.499519,991.489694
2.879110,69.204013,205.191295,993.538148
2.889110,69.169234,205.882721,995.593519
2.899110,69.134268,206.573796,997.655802
2.909110,69.098896,207.264516,999.724993
2.919110,69.062948,207.954878,1001.801091
2.929110,69.026840,208.644876,1003.884090
2.939110,68.990167,209.334507,1005.973987
2.949110,68.953209,210.023767,1008.070779
2.959110,68.915999,210.712653,1010.174461
2.969110,68.878774,211.401164,1012.285031
2.979110,68.841146,212.089297,1014.402483
2.989110,68.803226,212.777050,1016.526815
2.999110,68.765184,213.464419,1018.658023
3.009110,68.726863,214.151402,1020.796102
3.019110,68.688373,214.837997,1022.941050
3.029110,68.649731,215.524201,1025.092861
3.039110,68.610278,216.210011,1027.251532
3.049110,68.570418,216.895419,1029.417060
3.059110,68.530393,217.580420,1031.589439
3.069110,68.490161,218.265013,1033.768667
3.079110,68.449822,218.949197,1035.954738
3.089110,68.409022,219.632967,1038.147649
3.099110,68.368105,220.316321,1040.347396
3.109110,68.326911,220.999255,1042.553974
3.119110,68.285593,221.681766,1044.767380
3.129110,68.243984,222.363853,1046.987608
3.139110,68.202101,223.045512,1049.214656
3.149110,68.159907,223.726741,1051.448517
3.159110,68.117361,224.407534,1053.689189
3.169110,68.074216,225.087888,1055.936666
3.179110,68.030934,225.767798,1058.190945
3.189110,67.987229,226.447261,1060.452021
3.199110,67.943174,227.126275,1062.719889
3.209110,67.898917,227.804836,1064.994545
3.219110,67.854471,228.482943,1067.275984
3.229110,67.809791,229.160594,1069.564202
3.239110,67.764848,229.837787,1071.859194
3.249110,67.719372,230.514519,1074.160956
3.259110,67.673754,231.190787,1076.469483
3.269110,67.627883,231.866588,1078.784771
3.279110,67.581774,232.541922,1081.106814
3.289110,67.535067,233.216786,1083.435607
3.299110,67.487750,233.891174,1085.771148
3.309110,67.440153,234.565080,1088.113429
3.319110,67.392346,235.238504,1090.462448
3.329110,67.344359,235.911444,1092.818198
3.339110,67.296037,236.583899,1095.180675
3.349110,67.247248,237.255865,1097.549874
3.359110,67.198251,237.927337,1099.925791
3.369110,67.149007,238.598315,1102.308419
3.379110,67.099570,239.268795,1104.697755
3.389110,67.049595,239.938776,1107.093793
3.399110,66.998948,240.608251,1109.496529
3.409110,66.948009,241.277215,1111.905957
3.419110,66.896736,241.945663,1114.322072
3.429110,66.845350,242.613594,1116.744868
3.439110,66.793700,243.281007,1119.174342
3.449110,66.751274,243.947939,1121.610487
3.459110,66.708868,244.614439,1124.053299
3.469110,66.666180,245.280521,1126.502774
3.479110,66.623453,245.946175,1128.958908
3.489110,66.580640,246.611389,1131.421696
3.499110,66.537776,247.276164,1133.891134
3.509110,66.494837,247.940504,1136.367218
3.519110,66.451766,248.604410,1138.849943
3.529110,66.408646,249.267878,1141.339305
3.539110,66.365430,249.930903,1143.835299
3.549110,66.322064,250.593486,1146.337921
3.559110,66.278639,251.255625,1148.847167
3.569110,66.235038,251.917319,1151.363032
3.579110,66.191393,252.578566,1153.885512
3.589110,66.147593,253.239363,1156.414602
3.599110,66.103436,253.899708,1158.950298
3.609110,66.058960,254.559598,1161.492595
3.619110,66.014439,255.219029,1164.041488
3.629110,65.969780,255.878002,1166.596974
3.639110,65.924981,256.536513,1169.159047
3.649110,65.880097,257.194564,1171.727703
3.659110,65.835089,257.852151,1174.302937
3.669110,65.789992,258.509275,1176.884744
3.679110,65.744733,259.165935,1179.473121
3.689110,65.699360,259.822129,1182.068061
3.699110,65.653770,260.477858,1184.669562
3.709110,65.607700,261.133117,1187.277617
3.719110,65.561513,261.787905,1189.892222
3.729110,65.515195,262.442220,1192.513373
3.739110,65.468768,263.096062,1195.141065
3.749110,65.422149,263.749432,1197.775293
3.759110,65.375565,264.402326,1200.416052
3.769110,65.329335,265.054735,1203.063338
3.779110,65.283142,265.706647,1205.717145
3.789110,65.236841,266.358056,1208.377469
3.799110,65.190455,267.008963,1211.044305
3.809110,65.143612,267.659371,1213.717647
3.819110,65.096519,268.309280,1216.397491
3.829110,65.049267,268.958690,1219.083831
3.839110,65.001813,269.607604,1221.776663
3.849110,64.954154,270.256027,1224.475981
3.859110,64.906252,270.903963,1227.181782
3.869110,64.858177,271.551416,1229.894059
3.879110,64.809822,272.198391,1232.612808
3.889110,64.761176,272.844890,1235.338025
3.899110,64.711986,273.490917,1238.069705
3.909110,64.662655,274.136474,1240.807842
3.919110,64.613047,274.781562,1243.552432
3.929110,64.563337,275.426187,1246.303472
3.939110,64.513434,276.070349,1249.060955
3.949110,64.463425,276.714049,1251.824877
3.959110,64.413269,277.357288,1254.595234
3.969110,64.342837,277.999977,1257.372021
3.979110,64.260807,278.641959,1260.155231
3.989110,64.178400,279.283135,1262.944857
3.999110,64.095676,279.923499,1265.740891
4.009110,64.012706,280.563077,1268.543325
4.019110,63.929394,281.201871,1271.352150
4.029110,63.845735,281.839860,1274.167359
4.039110,63.761859,282.477026,1276.988945
4.049110,63.677643,283.113365,1279.816897
4.059110,63.593150,283.748877,1282.651209
4.069110,63.508056,284.383555,1285.491872
4.079110,63.422665,285.017389,1288.338877
4.089110,63.336990,285.650369,1291.192217
4.099110,63.250959,286.282489,1294.051882
4.109110,63.164641,286.913740,1296.917864
4.119110,63.077992,287.544118,1299.790154
4.129110,62.991043,288.173613,1302.668743
4.139110,62.903767,288.802221,1305.553623
4.149110,62.815973,289.429932,1308.444785
4.159110,62.727683,290.056741,1311.342219
4.169110,62.639131,290.682642,1314.245917
4.179110,62.550224,291.307629,1317.155869
4.189110,62.461037,291.931700,1320.072066
4.199110,62.371507,292.554851,1322.994500
4.209110,62.281607,293.177081,1325.923160
4.219110,62.191386,293.798387,1328.858038
4.229110,62.100712,294.418767,1331.799125
4.239110,62.009369,295.038220,1334.746410
4.249110,61.917653,295.656743,1337.699886
4.259110,61.825493,296.274337,1340.659542
4.269110,61.732519,296.891003,1343.625370
4.279110,61.638492,297.506746,1346.597359
4.289110,61.544059,298.121573,1349.575501
4.299110,61.449179,298.735483,1352.559788
4.309110,61.353791,299.348472,1355.550208
4.317343,61.274977,299.852422,1358.016685
4.325575,61.196005,300.355743,1360.487307
4.333808,61.116820,300.858433,1362.962071
4.342040,61.037456,301.360490,1365.440970
4.350273,60.957896,301.861911,1367.924001
4.358505,60.878148,302.362693,1370.411156
4.368505,60.781044,302.970124,1373.437821
4.378505,60.683300,303.576599,1376.470555
4.388505,60.585295,304.182111,1379.509350
4.398505,60.486992,304.786651,1382.554194
4.408505,60.388379,305.390212,1385.605080
4.418505,60.289450,305.992788,1388.661995
4.428505,60.190247,306.594370,1391.724932
4.438505,60.090752,307.194952,1394.793879
4.446628,59.990585,307.681990,1397.291176
4.447899,59.974315,307.758130,1397.682335
4.449171,59.958034,307.834249,1398.073590
4.450442,59.941772,307.910347,1398.464943
4.451713,59.925517,307.986424,1398.856392
4.452984,59.909228,308.062480,1399.247937
4.455526,59.876666,308.214530,1400.031318
4.458069,59.844075,308.366496,1400.815086
4.460611,59.811501,308.518377,1401.599240
4.463153,59.778905,308.670175,1402.383780
4.467757,59.719852,308.944863,1403.805553
4.472361,59.660756,309.219274,1405.228589
4.476965,59.601582,309.493409,1406.652889
4.481570,59.542439,309.767265,1408.078450
4.486174,59.483256,310.040843,1409.505271
4.493236,59.392387,310.459982,1411.696518
4.500299,59.301410,310.878464,1413.890723
4.507362,59.210371,311.296288,1416.087881
4.514425,59.119238,311.713453,1418.287988
4.521488,59.036894,312.129989,1420.491039
4.530992,58.928487,312.689591,1423.460384
4.540497,58.819081,313.248139,1426.435042
4.550002,58.709303,313.805624,1429.415005
4.559506,58.599406,314.362036,1432.400261
4.569011,58.489282,314.917375,1435.390800
4.578516,58.357049,315.471558,1438.386613
4.588516,58.201417,316.053195,1441.544238
4.598516,58.045352,316.633237,1444.707671
4.608516,57.888907,317.211676,1447.876897
4.618516,57.732027,317.788556,1451.051900
4.628516,57.574762,318.363894,1454.232663
4.638516,57.378335,318.937503,1457.419172
