# Time (s), acceleration Magnitude (m/s²), Vz (m/s), Z (m)
0.000000,71.180792,0.000000,697.000000
0.005755,71.189215,0.409477,697.002357
0.011511,71.197602,0.819002,697.007070
0.021511,71.212090,1.530614,697.018819
0.031511,71.226444,2.242371,697.037683
0.041511,71.240696,2.954270,697.063667
0.051511,71.254818,3.666311,697.096770
0.061511,71.268736,4.378492,697.136994
0.071511,71.282528,5.090811,697.184340
0.081511,71.296141,5.803268,697.238811
0.091511,71.309557,6.515859,697.300406
0.101511,71.322964,7.228585,697.369128
0.111511,71.336188,7.941443,697.444979
0.121511,71.349275,8.654434,697.527958
0.131511,71.362235,9.367554,697.618068
0.141511,71.374998,10.080803,697.715310
0.151511,71.387703,10.794179,697.819685
0.161511,71.400258,11.507681,697.931194
0.171511,71.412655,12.221308,698.049839
0.181511,71.424943,12.935058,698.175621
0.191511,71.437005,13.648930,698.308541
0.201511,71.448959,14.362922,698.448600
0.211511,71.460809,15.077033,698.595800
0.221511,71.472555,15.791262,698.750141
0.231511,71.484198,16.505608,698.911625
0.241511,71.495744,17.220070,699.080254
0.251511,71.507020,17.934646,699.256027
0.261511,71.518158,18.649333,699.438947
0.271511,71.529193,19.364132,699.629014
0.281511,71.540127,20.079040,699.826230
0.291511,71.550965,20.794057,700.030596
0.301511,71.561707,21.509182,700.242112
0.311511,71.572161,22.224413,700.460780
0.321511,71.582483,22.939747,700.686600
0.331511,71.592703,23.655185,700.919575
0.341511,71.602826,24.370723,701.159705
0.351511,71.612848,25.086363,701.406990
0.361511,71.622770,25.802102,701.661432
0.371511,71.632398,26.517939,701.923032
0.381511,71.641898,27.233872,702.191791
0.391511,71.651296,27.949899,702.467710
0.401511,71.660593,28.666019,702.750790
0.411511,71.669790,29.382232,703.041031
0.421511,71.678966,30.098537,703.338435
0.431511,71.687858,30.814931,703.643002
0.441511,71.696628,31.531415,703.954734
0.451511,71.705301,32.247985,704.273631
0.461511,71.713878,32.964641,704.599694
0.471511,71.722358,33.681383,704.932924
0.481511,71.730739,34.398209,705.273322
0.491511,71.738816,35.115117,705.620889
0.501511,71.746779,35.832106,705.975625
0.511511,71.754645,36.549173,706.337531
0.521511,71.762414,37.266319,706.706608
0.531511,71.770082,37.983542,707.082858
0.541511,71.777649,38.700841,707.466280
0.551511,71.784909,39.418214,707.856875
0.561511,71.792060,40.135659,708.254644
0.571511,71.799113,40.853175,708.659588
0.581511,71.806061,41.570760,709.071708
0.591511,71.812909,42.288415,709.491004
0.601511,71.819659,43.006138,709.917477
0.611511,71.826056,43.723926,710.351127
0.621511,71.832345,44.441778,710.791955
0.623818,71.833780,44.607406,710.894680
0.625021,71.840546,44.693779,710.948450
0.626224,71.841345,44.780154,711.002324
0.628630,71.842996,44.952905,711.110279
0.631037,71.844448,45.125660,711.218651
0.633443,71.845784,45.298419,711.327437
0.643443,71.851924,46.016444,711.784012
0.653443,71.857877,46.734528,712.247767
0.663443,71.863948,47.452670,712.718703
0.673443,71.869857,48.170869,713.196820
0.683443,71.875710,48.889121,713.682120
0.693443,71.880961,49.607423,714.174603
0.703443,71.886328,50.325769,714.674269
0.713443,71.891510,51.044159,715.181118
0.723443,71.896778,51.762589,715.695152
0.733443,71.901911,52.481058,716.216370
0.743443,71.906834,53.199563,716.744773
0.753443,71.911852,53.918100,717.280362
0.763443,71.916799,54.636669,717.823135
0.773443,71.921181,55.355264,718.373095
0.783443,71.925690,56.073879,718.930241
0.793443,71.929992,56.792514,719.494573
0.803443,71.934282,57.511165,720.066091
0.813443,71.938505,58.229828,720.644796
0.823443,71.942563,58.948499,721.230688
0.833443,71.946611,59.667175,721.823766
0.843443,71.950618,60.385853,722.424031
0.853443,71.954345,61.104528,723.031483
0.863443,71.957963,61.823195,723.646122
0.873443,71.961562,62.541850,724.267947
0.883443,71.964932,63.260488,724.896959
0.893443,71.968270,63.979104,725.533157
0.903443,71.971493,64.697694,726.176541
0.913443,71.974706,65.416252,726.827110
0.923443,71.977961,66.134776,727.484865
0.933443,71.980878,66.853260,728.149806
0.943443,71.983620,67.571697,728.821931
0.953443,71.986333,68.290080,729.501239
0.963443,71.988978,69.008406,730.187732
0.973443,71.991394,69.726668,730.881407
0.983443,71.993921,70.444860,731.582265
0.993443,71.996420,71.162979,732.290304
1.003443,71.998752,71.881018,733.005524
1.013443,72.001095,72.598972,733.727924
1.023443,72.002938,73.316834,734.457504
1.033443,72.004874,74.034596,735.194261
1.043443,72.006696,74.752253,735.938195
1.053443,72.008374,75.469800,736.689305
1.063443,72.010055,76.187230,737.447591
1.073443,72.011702,76.904539,738.213050
1.083443,72.013202,77.621721,738.985681
1.093443,72.014830,78.338772,739.765484
1.103443,72.015850,79.055685,740.552456
1.113443,72.016775,79.772454,741.346597
1.123443,72.017736,80.489072,742.147905
1.133443,72.018508,81.205536,742.956378
1.143443,72.019366,81.921842,743.772015
1.153443,72.019933,82.637987,744.594814
1.163443,72.020566,83.353966,745.424774
1.173443,72.021133,84.069778,746.261893
1.183443,72.021172,84.785418,747.106169
1.193443,72.021049,85.500882,747.957601
1.203443,72.020971,86.216167,748.816186
1.213443,72.020652,86.931273,749.681923
1.223443,72.020211,87.646199,750.554811
1.233443,72.019698,88.360944,751.434847
1.243443,72.018884,89.075508,752.322029
1.253443,72.018043,89.789891,753.216356
1.263443,72.016857,90.504096,754.117826
1.273443,72.015132,91.218120,755.026438
1.283443,72.013577,91.931966,755.942188
1.293443,72.011682,92.645637,756.865076
1.303443,72.009505,93.359137,757.795100
1.313443,72.007310,94.072469,758.732259
1.323443,72.004701,94.785639,759.676549
1.333443,72.001977,95.498652,760.627971
1.343443,71.999203,96.211513,761.586522
1.353443,71.995977,96.924230,762.552201
1.363443,71.992726,97.636810,763.525006
1.373443,71.989110,98.349260,764.504936
1.383443,71.984871,99.061586,765.491991
1.393443,71.980401,99.773795,766.486168
1.403443,71.975566,100.485893,767.487466
1.413443,71.970620,101.197891,768.495885
1.423443,71.965339,101.909798,769.511424
1.433443,71.959663,102.621623,770.534081
1.443443,71.953981,103.333377,771.563856
1.453443,71.947948,104.045069,772.600748
1.463443,71.941542,104.756709,773.644757
1.473443,71.934954,105.468308,774.695882
1.483443,71.928073,106.179874,775.754123
1.493443,71.920607,106.891415,776.819480
1.503443,71.912799,107.602941,777.891951
1.513443,71.904621,108.314458,778.971538
1.523443,71.896212,109.025975,780.058241
1.533443,71.887571,109.737501,781.152058
1.543443,71.878713,110.449045,782.252991
1.553443,71.869417,111.160613,783.361039
1.563443,71.860135,111.872212,784.476203
1.573443,71.850401,112.583850,785.598483
1.583443,71.840653,113.295532,786.727880
1.593443,71.830452,114.007263,787.864394
1.603443,71.819965,114.719046,789.008026
1.613443,71.808990,115.430883,790.158775
1.623443,71.797970,116.142776,791.316644
1.633443,71.786627,116.854727,792.481631
1.643443,71.775040,117.566737,793.653738
1.653443,71.763423,118.278806,794.832966
1.663443,71.751678,118.990936,796.019315
1.673443,71.739712,119.703124,797.212785
1.683443,71.727467,120.415371,798.413377
1.693443,71.715253,121.127672,799.621092
1.703443,71.703036,121.840026,800.835931
1.713443,71.690565,122.552431,802.057893
1.723443,71.677668,123.264879,803.286980
1.733443,71.664565,123.977363,804.523191
1.743443,71.651469,124.689877,805.766527
1.753443,71.638338,125.402414,807.016988
1.763443,71.625005,126.114967,808.274575
1.773443,71.611766,126.827529,809.539288
1.783443,71.598406,127.540092,810.811126
1.793443,71.585043,128.252648,812.090090
1.803443,71.571637,128.965190,813.376179
1.813443,71.558192,129.677708,814.669393
1.823443,71.544718,130.390196,815.969733
1.833443,71.530788,131.102641,817.277197
1.843443,71.516825,131.815034,818.591785
1.853443,71.502951,132.527365,819.913498
1.863443,71.488930,133.239625,821.242333
1.873443,71.474745,133.951805,822.578290
1.883443,71.460577,134.663895,823.921368
1.893443,71.446341,135.375887,825.271567
1.903443,71.432286,136.087770,826.628886
1.913443,71.417923,136.799537,827.993322
1.923443,71.403711,137.511178,829.364876
1.933443,71.389460,138.222683,830.743545
1.943443,71.374781,138.934043,832.129329
1.953443,71.360047,139.645247,833.522226
1.963443,71.345161,140.356282,834.922234
1.973443,71.330093,141.067140,836.329351
1.983443,71.315027,141.777811,837.743576
1.993443,71.300074,142.488286,839.164906
2.003443,71.284801,143.198556,840.593341
2.013443,71.269655,143.908611,842.028877
2.023443,71.254414,144.618441,843.471512
2.033443,71.239088,145.328039,844.921245
2.043443,71.223801,146.037395,846.378072
2.053443,71.208401,146.746501,847.841992
2.063443,71.192463,147.455345,849.313001
2.073443,71.176497,148.163918,850.791098
2.083443,71.160477,148.872212,852.276279
2.093443,71.144318,149.580218,853.768541
2.103443,71.128124,150.287931,855.267882
2.113443,71.111938,150.995344,856.774299
2.123443,71.095501,151.702452,858.287788
2.133443,71.079020,152.409250,859.808347
2.143443,71.062541,153.115735,861.335972
2.153443,71.045788,153.821902,862.870661
2.163443,71.028924,154.527751,864.412409
2.173443,71.011748,155.233278,865.961214
2.183443,70.993972,155.938482,867.517074
2.193443,70.976154,156.643361,869.079983
2.203443,70.958040,157.347917,870.649940
2.213443,70.939800,158.052156,872.226940
2.223443,70.921251,158.756080,873.810982
2.233443,70.902323,159.459695,875.402061
2.243443,70.883386,160.163009,877.000175
2.253443,70.864095,160.866028,878.605320
2.263443,70.844490,161.568762,880.217494
2.273443,70.824394,162.271220,881.836694
2.283443,70.804086,162.973411,883.462918
2.293443,70.783621,163.675347,885.096162
2.303443,70.762486,164.377040,886.736424
2.313443,70.741138,165.078499,888.383702
2.323443,70.719189,165.779737,890.037993
2.333443,70.696311,166.480761,891.699296
2.343443,70.673142,167.181581,893.367608
2.353443,70.649668,167.882208,895.042927
2.363443,70.625773,168.582653,896.725251
2.373443,70.601511,169.282926,898.414579
2.383443,70.576868,169.983038,900.110909
2.393443,70.551968,170.682998,901.814239
2.403443,70.526473,171.382815,903.524569
2.413443,70.500737,172.082500,905.241895
2.423443,70.474621,172.782060,906.966218
2.433443,70.448343,173.481501,908.697536
2.443443,70.421862,174.180825,910.435848
2.453443,70.395152,174.880034,912.181152
2.463443,70.368346,175.579127,913.933448
2.473443,70.341256,176.278103,915.692734
2.483443,70.313554,176.976957,917.459010
2.493443,70.285795,177.675683,919.232273
2.503443,70.257849,178.374274,921.012523
2.513443,70.229761,179.072725,922.799758
2.523443,70.201691,179.771028,924.593977
2.533443,70.173649,180.469175,926.395178
2.543443,70.145583,181.167159,928.203360
2.553443,70.117186,181.864967,930.018521
2.563443,70.088809,182.562589,931.840659
2.573443,70.060435,183.260013,933.669772
2.583443,70.031966,183.957228,935.505858
2.593443,70.003382,184.654222,937.348916
2.603443,69.973944,185.350978,939.198942
2.613443,69.944494,186.047479,941.055934
2.623443,69.914986,186.743711,942.919891
2.633443,69.884938,187.439660,944.790808
2.643443,69.854651,188.135311,946.668683
2.653443,69.824152,188.830647,948.553513
2.663443,69.793570,189.525654,950.445295
2.673443,69.763043,190.220319,952.344025
2.683443,69.732351,190.914630,954.249700
2.693443,69.701525,191.608574,956.162316
2.703443,69.670664,192.302137,958.081870
2.713443,69.639713,192.995307,960.008358
2.723443,69.608606,193.688072,961.941775
2.733443,69.577580,194.380421,963.882118
2.743443,69.546327,195.072343,965.829382
2.753443,69.514965,195.763828,967.783563
2.763443,69.483634,196.454868,969.744657
2.773443,69.452144,197.145455,971.712659
2.783443,69.420404,197.835582,973.687564
2.793443,69.388011,198.525241,975.669369
2.803443,69.355512,199.214425,977.658068
2.813443,69.322856,199.903131,979.653656
2.823443,69.290031,200.591359,981.656129
2.833443,69.257009,201.279111,983.665481
2.843443,69.223731,201.966391,985.681709
2.853443,69.190021,202.653199,987.704808
2.863443,69.156100,203.339543,989.734772
2.873443,69.121798,204.025429,991.771597
2.883443,69.087222,204.710866,993.815279
2.893443,69.051838,205.395863,995.865813
2.903443,69.015945,206.080429,997.923195
2.913443,68.979091,206.764571,999.987420
2.923443,68.941795,207.448300,1002.058485
2.933443,68.903994,208.131628,1004.136385
2.943443,68.865511,208.814567,1006.221116
2.953443,68.826645,209.497131,1008.312675
2.963443,68.787294,210.179330,1010.411057
2.973443,68.747447,210.861178,1012.516260
2.983443,68.707291,211.542686,1014.628280
2.993443,68.666502,212.223863,1016.747113
3.003443,68.625268,212.904719,1018.872756
3.013443,68.583823,213.585259,1021.005206
3.023443,68.541954,214.265491,1023.144460
3.033443,68.499707,214.945418,1025.290515
3.043443,68.456676,215.625042,1027.443368
3.053443,68.413430,216.304359,1029.603015
3.063443,68.370057,216.983369,1031.769454
3.073443,68.326516,217.662071,1033.942681
3.083443,68.282830,218.340462,1036.122694
3.093443,68.238837,219.018535,1038.309489
3.103443,68.194747,219.696282,1040.503064
3.113443,68.150525,220.373693,1042.703414
3.123443,68.106317,221.050761,1044.910536
3.133443,68.061944,221.727475,1047.124428
3.143443,68.017294,222.403822,1049.345085
3.153443,67.972619,223.079788,1051.572503
3.163443,67.927410,223.755359,1053.806679
3.173443,67.882017,224.430517,1056.047609
3.183443,67.836538,225.105248,1058.295288
3.193443,67.790663,225.779535,1060.549712
3.203443,67.744699,226.453364,1062.810877
3.213443,67.698625,227.126718,1065.078778
3.223443,67.652400,227.799583,1067.353410
3.233443,67.606232,228.471945,1069.634768
3.243443,67.559526,229.143789,1071.922847
3.253443,67.512786,229.815100,1074.217642
3.263443,67.465884,230.485864,1076.519147
3.273443,67.418986,231.156070,1078.827357
3.283443,67.371862,231.825708,1081.142267
3.293443,67.323870,232.494766,1083.463870
3.303443,67.275758,233.163229,1085.792160
3.313443,67.227505,233.831091,1088.127132
3.323443,67.179133,234.498348,1090.468780
3.333443,67.130604,235.164998,1092.817097
3.343443,67.081485,235.831036,1095.172078
3.353443,67.032107,236.496462,1097.533716
3.363443,66.982476,237.161277,1099.902005
3.373443,66.932555,237.825483,1102.276939
3.383443,66.882266,238.489089,1104.658513
3.393443,66.839315,239.152133,1107.046719
3.403443,66.797433,239.814671,1109.441554
3.413443,66.755317,240.476733,1111.843011
3.423443,66.712778,241.138327,1114.251087
3.433443,66.669886,241.799455,1116.665776
3.443443,66.627050,242.460131,1119.087074
3.453443,66.584022,243.120374,1121.514977
3.463443,66.540646,243.780203,1123.949481
3.473443,66.496971,244.439626,1126.390580
3.483443,66.452890,245.098654,1128.838272
3.493443,66.408403,245.757294,1131.292552
3.503443,66.363279,246.415555,1133.753416
3.513443,66.318058,247.073444,1136.220862
3.523443,66.272555,247.730966,1138.694884
3.533443,66.226947,248.388125,1141.175480
3.543443,66.181150,249.044925,1143.662645
3.553443,66.135246,249.701365,1146.156377
3.563443,66.089374,250.357445,1148.656671
3.573443,66.043462,251.013162,1151.163525
3.583443,65.997549,251.668513,1153.676933
3.593443,65.951517,252.323491,1156.196894
3.603443,65.905125,252.978087,1158.723402
3.613443,65.858817,253.632288,1161.256454
3.623443,65.812393,254.286086,1163.796046
3.633443,65.766192,254.939475,1166.342175
3.643443,65.719976,255.592448,1168.894835
3.653443,65.673761,256.244999,1171.454022
3.663443,65.627581,256.897113,1174.019733
3.673443,65.581463,257.548775,1176.591963
3.683443,65.535315,258.199972,1179.170707
3.693443,65.489220,258.850689,1181.755961
3.703443,65.442861,259.500913,1184.347719
3.713443,65.396365,260.150628,1186.945977
3.723443,65.349892,260.799819,1189.550730
3.733443,65.303393,261.448474,1192.161972
3.743443,65.257038,262.096583,1194.779698
3.753443,65.210653,262.744138,1197.403902
3.763443,65.164293,263.391130,1200.034579
3.773443,65.117958,264.037552,1202.671722
3.783443,65.071852,264.683390,1205.315328
3.793443,65.026069,265.328624,1207.965388
3.803443,64.980145,265.973244,1210.621898
3.813443,64.933838,266.617250,1213.284851
3.823443,64.887366,267.260649,1215.954241
3.833443,64.840643,267.903452,1218.630062
3.843443,64.793649,268.545669,1221.312308
3.853443,64.746732,269.187312,1224.000973
3.863443,64.700465,269.828392,1226.696052
3.873443,64.653850,270.468919,1229.397539
3.883443,64.606702,271.108911,1232.105429
3.893443,64.558742,271.748388,1234.819716
3.903443,64.505561,272.387350,1237.540395
3.913443,64.425533,273.025679,1240.267461
3.923443,64.344769,273.663252,1243.000906
3.933443,64.263193,274.300044,1245.740723
3.943443,64.180914,274.936103,1248.486905
3.953443,64.098032,275.571470,1251.239443
3.963443,64.014565,276.206147,1253.998332
3.973443,63.930492,276.840126,1256.763564
3.983443,63.845757,277.473409,1259.535132
3.993443,63.760728,278.106005,1262.313030
4.003443,63.675434,278.737916,1265.097250
4.013443,63.589898,279.369139,1267.887786
4.023443,63.504185,279.999662,1270.684630
4.033443,63.418366,280.629476,1273.487776
4.043443,63.332432,281.258569,1276.297217
4.053443,63.246355,281.886927,1279.112945
4.063443,63.159968,282.514533,1281.934953
4.073443,63.073339,283.141365,1284.763233
4.083443,62.986571,283.767402,1287.597778
4.093443,62.899670,284.392624,1290.438579
4.103443,62.812688,285.017011,1293.285628
4.113443,62.725516,285.640541,1296.138916
4.123443,62.638232,286.263193,1298.998436
4.133443,62.550826,286.884949,1301.864177
4.143443,62.463271,287.505788,1304.736131
4.153443,62.375195,288.125692,1307.614290
4.163443,62.287022,288.744644,1310.498642
4.173443,62.198728,289.362630,1313.389179
4.183443,62.110247,289.979640,1316.285891
4.193443,62.021637,290.595666,1319.188769
4.203443,61.932821,291.210701,1322.097801
4.213443,61.843684,291.824744,1325.012980
4.223443,61.754307,292.437794,1327.934293
4.233443,61.664342,293.049853,1330.861732
4.243443,61.573796,293.660924,1333.795287
4.253443,61.482752,294.271013,1336.734947
4.263443,61.391172,294.880130,1339.680704
4.273443,61.298803,295.488286,1342.632547
4.283443,61.204588,296.095503,1345.590466
4.293443,61.109655,296.701804,1348.554454
4.303443,61.013983,297.307206,1351.524500
4.313443,60.917699,297.911715,1354.500595
4.323443,60.820903,298.515337,1357.482731
4.333443,60.723735,299.118076,1360.470899
4.343443,60.626156,299.719939,1363.465089
4.353443,60.528310,300.320927,1366.465295
4.363443,60.430154,300.921040,1369.471505
4.373443,60.331573,301.520274,1372.483712
4.383443,60.232658,302.118620,1375.501908
4.393443,60.133580,302.716069,1378.526082
4.403443,60.034275,303.312614,1381.556226
4.413443,59.934858,303.908242,1384.592331
4.423443,59.835279,304.502940,1387.634388
4.433443,59.735561,305.096694,1390.682387
4.441630,59.648763,305.582073,1393.182223
4.442910,59.632362,305.657899,1393.573439
4.444190,59.616024,305.733705,1393.964752
4.445470,59.599657,305.809489,1394.356161
4.446750,59.583287,305.885253,1394.747668
4.448030,59.566934,305.960997,1395.139271
4.450590,59.534177,306.112422,1395.922769
4.453150,59.501450,306.263764,1396.706654
4.455711,59.468712,306.415023,1397.490927
4.458271,59.435973,306.566198,1398.275587
4.462893,59.379231,306.838947,1399.693306
4.467516,59.327059,307.111441,1401.112286
4.472138,59.274871,307.383692,1402.532524
4.476761,59.222701,307.655699,1403.954021
4.481383,59.170542,307.927462,1405.376774
4.488436,59.090954,308.341661,1407.550127
4.495490,59.011409,308.755278,1409.726400
4.502543,58.931902,309.168311,1411.905589
4.509596,58.852115,309.580756,1414.087688
4.516649,58.771932,309.992612,1416.272695
4.525847,58.644063,310.528698,1419.126323
4.535044,58.504117,311.063525,1421.984876
4.544242,58.364052,311.596992,1424.848342
4.553439,58.223789,312.129098,1427.716709
4.562637,58.083374,312.659873,1430.589963
4.571834,57.942498,313.189323,1433.468094
4.581834,57.772497,313.763355,1436.602858
4.591834,57.570271,314.335450,1439.743354
4.601834,57.367584,314.905406,1442.889560
4.611834,57.164387,315.473199,1446.041455
4.621834,56.960610,316.038898,1449.199017
4.631834,56.756206,316.602541,1452.362226
4.641834,56.543245,317.164079,1455.531061
4.651834,56.318171,317.723413,1458.705500
4.661834,56.092391,318.280490,1461.885522
