# Time (s), acceleration Magnitude (m/s²), Vz (m/s), Z (m)
0.000000,71.188536,0.000000,697.000000
0.005758,71.196981,0.409320,697.002357
0.011515,71.205388,0.818689,697.007070
0.021515,71.219897,1.529757,697.018813
0.031515,71.234260,2.240968,697.037666
0.041515,71.248516,2.952323,697.063633
0.051515,71.262662,3.663820,697.096714
0.061515,71.276611,4.375457,697.136910
0.071515,71.290440,5.087232,697.184223
0.081515,71.304097,5.799145,697.238655
0.091515,71.317622,6.511193,697.300207
0.101515,71.331096,7.223377,697.368880
0.111515,71.344390,7.935694,697.444675
0.121515,71.357553,8.648142,697.527594
0.131515,71.370594,9.360722,697.617639
0.141515,71.383443,10.073431,697.714809
0.151515,71.396237,10.786268,697.819108
0.161515,71.408884,11.499233,697.930535
0.171515,71.421378,12.212322,698.049093
0.181515,71.433769,12.925536,698.174782
0.191515,71.445929,13.638872,698.307604
0.201515,71.457990,14.352330,698.447561
0.211515,71.469953,15.065907,698.594652
0.221515,71.481817,15.779603,698.748879
0.231515,71.493582,16.493418,698.910244
0.241515,71.505247,17.207349,699.078748
0.251515,71.516652,17.921396,699.254392
0.261515,71.527925,18.635555,699.437176
0.271515,71.539100,19.349827,699.627103
0.281515,71.550179,20.064210,699.824173
0.291515,71.561161,20.778703,700.028388
0.301515,71.572057,21.493305,700.239748
0.311515,71.582671,22.208015,700.458254
0.321515,71.593158,22.922830,700.683908
0.331515,71.603549,23.637749,700.916711
0.341515,71.613845,24.352771,701.156664
0.351515,71.624051,25.067896,701.403767
0.361515,71.634161,25.783122,701.658022
0.371515,71.643984,26.498448,701.919430
0.381515,71.653685,27.213872,702.187992
0.391515,71.663292,27.929391,702.463708
0.401515,71.672804,28.645006,702.746580
0.411515,71.682221,29.360716,703.036608
0.421515,71.691544,30.076519,703.333794
0.431515,71.700574,30.792414,703.638139
0.441515,71.709486,31.508399,703.949643
0.451515,71.718302,32.224471,704.268307
0.461515,71.727022,32.940632,704.594133
0.471515,71.735648,33.656879,704.927120
0.481515,71.744180,34.373211,705.267271
0.491515,71.752411,35.089628,705.614585
0.501515,71.760525,35.806126,705.969063
0.511515,71.768545,36.522705,706.330708
0.521515,71.776470,37.239363,706.699518
0.531515,71.784300,37.956099,707.075495
0.541515,71.792031,38.672914,707.458640
0.551515,71.799453,39.389804,707.848954
0.561515,71.806767,40.106768,708.246437
0.571515,71.813986,40.823804,708.651089
0.581515,71.821109,41.540912,709.062913
0.591515,71.828131,42.258091,709.481908
0.601515,71.835054,42.975339,709.908075
0.611515,71.841623,43.692654,710.341415
0.621515,71.848088,44.410035,710.781928
0.623777,71.849536,44.572257,710.882531
0.624990,71.861358,44.659276,710.936729
0.626204,71.862198,44.746297,710.991033
0.628631,71.863789,44.920339,711.099852
0.631058,71.865373,45.094386,711.209093
0.633485,71.866923,45.268435,711.318757
0.643485,71.873195,45.985559,711.775027
0.653485,71.879347,46.702745,712.238468
0.663485,71.885435,47.419995,712.709082
0.673485,71.891458,48.137312,713.186868
0.683485,71.897251,48.854697,713.671828
0.693485,71.902715,49.572151,714.163962
0.703485,71.907917,50.289672,714.663271
0.713485,71.913054,51.007262,715.169756
0.723485,71.918183,51.724924,715.683417
0.725905,71.919352,51.898604,715.808797
0.728325,71.920485,52.072288,715.934598
0.730745,71.921695,52.245976,716.060819
0.733165,71.922952,52.419668,716.187461
0.743165,71.927666,53.137475,716.715246
0.753165,71.932400,53.855358,717.250211
0.763165,71.936849,54.573317,717.792354
0.773165,71.940985,55.291353,718.341677
0.783165,71.945025,56.009465,718.898181
0.793165,71.948940,56.727656,719.461867
0.803165,71.952740,57.445925,720.032735
0.813165,71.956373,58.164274,720.610785
0.823165,71.959952,58.882702,721.196020
0.833165,71.963250,59.601211,721.788440
0.843165,71.966653,60.319799,722.388045
0.853165,71.969635,61.038468,722.994836
0.863165,71.972490,61.757214,723.608814
0.873165,71.975078,62.476037,724.229981
0.883165,71.977644,63.194935,724.858335
0.893165,71.980162,63.913908,725.493880
0.903165,71.982505,64.632955,726.136614
0.913165,71.984843,65.352073,726.786539
0.923165,71.987150,66.071261,727.443655
0.933165,71.989175,66.790518,728.107964
0.943165,71.990957,67.509838,728.779466
0.953165,71.992414,68.229215,729.458161
0.963165,71.994046,68.948647,730.144051
0.973165,71.995582,69.668131,730.837134
0.983165,71.997036,70.387662,731.537413
0.993165,71.998368,71.107236,732.244888
1.003165,71.999529,71.826847,732.959558
1.013165,72.000691,72.546490,733.681425
1.023165,72.001619,73.266158,734.410488
1.033165,72.002451,73.985843,735.146748
1.043165,72.003182,74.705540,735.890205
1.053165,72.003869,75.425241,736.640859
1.063165,72.004433,76.144938,737.398710
1.073165,72.005150,76.864624,738.163758
1.083165,72.005677,77.584293,738.936002
1.093165,72.006198,78.303935,739.715443
1.103165,72.006639,79.023542,740.502081
1.113165,72.006781,79.743104,741.295914
1.123165,72.006806,80.462611,742.096943
1.133165,72.006846,81.182053,742.905166
1.143165,72.006861,81.901422,743.720583
1.153165,72.007045,82.620709,744.543194
1.163165,72.006955,83.339905,745.372997
1.173165,72.006968,84.059000,746.209992
1.183165,72.006718,84.777986,747.054177
1.193165,72.006260,85.496850,747.905551
1.203165,72.005829,86.215583,748.764114
1.213165,72.005367,86.934177,749.629862
1.223165,72.004835,87.652623,750.502797
1.233165,72.004163,88.370913,751.382914
1.243165,72.003616,89.089039,752.270214
1.253165,72.002938,89.806993,753.164695
1.263165,72.002022,90.524767,754.066354
1.273165,72.000939,91.242355,754.975189
1.283165,71.999566,91.959747,755.891200
1.293165,71.998317,92.676938,756.814384
1.303165,71.996824,93.393923,757.744738
1.313165,71.995163,94.110698,758.682261
1.323165,71.993743,94.827259,759.626951
1.333165,71.992000,95.543604,760.578806
1.343165,71.990092,96.259731,761.537823
1.353165,71.988176,96.975638,762.504000
1.363165,71.986099,97.691324,763.477335
1.373165,71.983779,98.406790,764.457825
1.383165,71.980986,99.122035,765.445470
1.393165,71.977966,99.837059,766.440265
1.403165,71.974750,100.551863,767.442210
1.413165,71.971403,101.266451,768.451302
1.423165,71.967851,101.980827,769.467539
1.433165,71.964194,102.694996,770.490918
1.443165,71.960375,103.408959,771.521438
1.453165,71.956524,104.122720,772.559096
1.463165,71.952578,104.836280,773.603891
1.473165,71.948458,105.549645,774.655821
1.483165,71.944001,106.262821,775.714884
1.493165,71.939164,106.975816,776.781077
1.503165,71.933881,107.688637,777.854400
1.513165,71.928268,108.401294,778.934849
1.523165,71.922324,109.113795,780.022425
1.533165,71.916342,109.826153,781.117125
1.543165,71.909887,110.538379,782.218947
1.553165,71.903258,111.250486,783.327892
1.563165,71.896231,111.962484,784.443957
1.573165,71.888956,112.674388,785.567141
1.583165,71.881328,113.386208,786.697444
1.593165,71.873455,114.097957,787.834865
1.603165,71.865267,114.809649,788.979403
1.613165,71.856252,115.521293,790.131058
1.623165,71.846907,116.232898,791.289829
1.633165,71.837336,116.944476,792.455716
1.643165,71.827545,117.656038,793.628718
1.653165,71.817400,118.367596,794.808837
1.663165,71.806862,119.079159,795.996070
1.673165,71.796221,119.790736,797.190420
1.683165,71.785253,120.502336,798.391885
1.693165,71.773971,121.213964,799.600467
1.703165,71.762522,121.925627,800.816165
1.713165,71.750863,122.637327,802.038979
1.723165,71.738477,123.349067,803.268911
1.733165,71.725856,124.060848,804.505961
1.743165,71.713113,124.772674,805.750128
1.753165,71.700268,125.484546,807.001414
1.763165,71.687134,126.196468,808.259819
1.773165,71.673712,126.908437,809.525344
1.783165,71.660181,127.620452,810.797988
1.793165,71.646793,128.332513,812.077753
1.803165,71.633142,129.044619,813.364639
1.813165,71.619202,129.756764,814.658646
1.823165,71.605427,130.468946,815.959774
1.833165,71.591111,131.181157,817.268025
1.843165,71.576609,131.893390,818.583397
1.853165,71.562115,132.605640,819.905893
1.863165,71.547497,133.317898,821.235510
1.873165,71.532839,134.030159,822.572250
1.883165,71.518077,134.742415,823.916113
1.893165,71.503299,135.454659,825.267099
1.903165,71.488622,136.166882,826.625206
1.913165,71.473735,136.879077,827.990436
1.923165,71.458894,137.591236,829.362788
1.933165,71.444126,138.303351,830.742261
1.943165,71.428858,139.015412,832.128855
1.953165,71.413651,139.727409,833.522569
1.963165,71.398067,140.439332,834.923403
1.973165,71.382520,141.151173,836.331355
1.983165,71.367118,141.862923,837.746426
1.993165,71.351495,142.574575,839.168613
2.003165,71.335875,143.286121,840.597917
2.013165,71.320059,143.997552,842.034335
2.023165,71.304387,144.708860,843.477868
2.033165,71.288496,145.420037,844.928512
2.043165,71.272646,146.131076,846.386268
2.053165,71.256639,146.841967,847.851133
2.063165,71.240197,147.552702,849.323107
2.073165,71.223526,148.263269,850.802187
2.083165,71.206977,148.973659,852.288371
2.093165,71.190289,149.683865,853.781659
2.103165,71.173477,150.393879,855.282048
2.113165,71.156625,151.103691,856.789536
2.123165,71.139653,151.813292,858.304121
2.133165,71.122842,152.522675,859.825801
2.143165,71.105760,153.231831,861.354574
2.153165,71.088654,153.940752,862.890437
2.163165,71.071619,154.649427,864.433388
2.173165,71.054221,155.357849,865.983425
2.183165,71.036334,156.066006,867.540544
2.193165,71.018567,156.773888,869.104744
2.203165,71.000572,157.481487,870.676021
2.213165,70.982715,158.188796,872.254373
2.223165,70.964660,158.895810,873.839796
2.233165,70.946592,159.602523,875.432288
2.243165,70.928529,160.308929,877.031846
2.253165,70.910315,161.015024,878.638466
2.263165,70.891943,161.720805,880.252145
2.273165,70.873538,162.426271,881.872881
2.283165,70.855040,163.131419,883.500669
2.293165,70.836285,163.836250,885.135508
2.303165,70.817488,164.540765,886.777393
2.313165,70.798287,165.244967,888.426322
2.323165,70.778754,165.948857,890.082292
2.333165,70.758588,166.652437,891.745298
2.343165,70.738240,167.355712,893.415339
2.353165,70.717396,168.058687,895.092412
2.363165,70.696387,168.761370,896.776512
2.373165,70.674889,169.463771,898.467638
2.383165,70.653310,170.165900,900.165787
2.393165,70.631116,170.867767,901.870955
2.403165,70.608715,171.569382,903.583141
2.413165,70.585864,172.270757,905.302342
2.423165,70.562602,172.971903,907.028555
2.433165,70.538996,173.672830,908.761779
2.443165,70.515065,174.373551,910.502011
2.453165,70.490633,175.074075,912.249250
2.463165,70.465920,175.774412,914.003492
2.473165,70.440801,176.474572,915.764737
2.483165,70.414756,177.174560,917.532983
2.493165,70.388338,177.874380,919.308228
2.503165,70.361674,178.574038,921.090470
2.513165,70.334704,179.273539,922.879708
2.523165,70.307482,179.972889,924.675940
2.533165,70.280125,180.672091,926.479165
2.543165,70.252312,181.371147,928.289382
2.553165,70.224385,182.070060,930.106588
2.563165,70.196377,182.768830,931.930782
2.573165,70.168285,183.467454,933.761964
2.583165,70.140074,184.165930,935.600131
2.593165,70.111672,184.864252,937.445282
2.603165,70.083222,185.562413,939.297416
2.613165,70.054662,186.260407,941.156530
2.623165,70.026162,186.958226,943.022623
2.633165,69.997238,187.655863,944.895694
2.643165,69.967353,188.353301,946.775740
2.653165,69.937185,189.050527,948.662759
2.663165,69.906896,189.747528,950.556750
2.673165,69.876604,190.444294,952.457709
2.683165,69.846269,191.140819,954.365635
2.693165,69.815844,191.837092,956.280524
2.703165,69.785179,192.533102,958.202376
2.713165,69.754341,193.228837,960.131185
2.723165,69.723530,193.924288,962.066951
2.733165,69.692614,194.619445,964.009670
2.743165,69.661437,195.314299,965.959339
2.753165,69.630099,196.008838,967.915955
2.763165,69.598736,196.703051,969.879515
2.773165,69.567133,197.396929,971.850015
2.783165,69.535218,198.090460,973.827452
2.793165,69.502814,198.783630,975.811823
2.803165,69.470222,199.476429,977.803124
2.813165,69.437565,200.168844,979.801350
2.823165,69.404825,200.860867,981.806499
2.833165,69.372109,201.552489,983.818566
2.843165,69.339093,202.243702,985.837548
2.853165,69.306175,202.934496,987.863439
2.863165,69.273083,203.624865,989.896236
2.873165,69.240008,204.314801,991.935935
2.883165,69.206844,205.004299,993.982531
2.893165,69.173550,205.693355,996.036019
2.903165,69.140570,206.381963,998.096396
2.913165,69.106927,207.070119,1000.163657
2.923165,69.073037,207.757818,1002.237797
2.933165,69.038994,208.445060,1004.318812
2.943165,69.004497,209.131848,1006.406697
2.953165,68.969510,209.818183,1008.501447
2.963165,68.934302,210.504069,1010.603059
2.973165,68.898611,211.189513,1012.711527
2.983165,68.862690,211.874524,1014.826848
2.993165,68.826341,212.559110,1016.949016
3.003165,68.789292,213.243281,1019.078029
3.013165,68.751943,213.927048,1021.213881
3.023165,68.714058,214.610420,1023.356568
3.033165,68.675615,215.293410,1025.506088
3.043165,68.636224,215.976027,1027.662435
3.053165,68.596191,216.658277,1029.825607
3.063165,68.555813,217.340171,1031.995600
3.073165,68.514922,218.021717,1034.172409
3.083165,68.473689,218.702927,1036.356033
3.093165,68.432067,219.383806,1038.546467
3.103165,68.389973,220.064361,1040.743708
3.113165,68.347612,220.744595,1042.947753
3.123165,68.305012,221.424512,1045.158599
3.133165,68.262102,222.104112,1047.376242
3.143165,68.219207,222.783398,1049.600680
3.153165,68.175939,223.462367,1051.831909
3.163165,68.132205,224.141014,1054.069926
3.173165,68.088194,224.819331,1056.314728
3.183165,68.044204,225.497314,1058.566312
3.193165,68.000007,226.174956,1060.824673
3.203165,67.955691,226.852249,1063.089810
3.213165,67.911151,227.529184,1065.361717
3.223165,67.866622,228.205751,1067.640392
3.233165,67.821993,228.881942,1069.925831
3.243165,67.777307,229.557746,1072.218030
3.253165,67.732122,230.233153,1074.516985
3.263165,67.686308,230.908150,1076.822691
3.273165,67.640419,231.582723,1079.135146
3.283165,67.594287,232.256863,1081.454344
3.293165,67.547531,232.930555,1083.780282
3.303165,67.500584,233.603787,1086.112954
3.313165,67.453184,234.276543,1088.452356
3.323165,67.405619,234.948811,1090.798483
3.333165,67.357968,235.620581,1093.151331
3.343165,67.310218,236.291842,1095.510893
3.353165,67.262136,236.962582,1097.877166
3.363165,67.213843,237.632791,1100.250143
3.373165,67.165448,238.302457,1102.629820
3.383165,67.116875,238.971571,1105.016190
3.393165,67.068050,239.640125,1107.409249
3.403165,67.018823,240.308110,1109.808991
3.413165,66.969180,240.975517,1112.215410
3.423165,66.919540,241.642338,1114.628499
3.433165,66.869753,242.308573,1117.048254
3.443165,66.819664,242.974220,1119.474669
3.453165,66.770213,243.639281,1121.907737
3.463165,66.729206,244.303800,1124.347453
3.473165,66.688107,244.967826,1126.793811
3.483165,66.646781,245.631382,1129.246808
3.493165,66.604920,246.294461,1131.706437
3.503165,66.562454,246.957061,1134.172695
3.513165,66.520262,247.619192,1136.645577
3.523165,66.477872,248.280871,1139.125078
3.533165,66.435081,248.942113,1141.611193
3.543165,66.391791,249.602924,1144.103918
3.553165,66.347744,250.263309,1146.603250
3.563165,66.303311,250.923277,1149.109183
3.573165,66.258639,251.582836,1151.621714
3.583165,66.213943,252.241994,1154.140839
3.593165,66.170848,252.900751,1156.666553
3.603165,66.127294,253.559103,1159.198852
3.613165,66.083557,254.217045,1161.737733
3.623165,66.039614,254.874581,1164.283192
3.633165,65.995506,255.531719,1166.835224
3.643165,65.951283,256.188465,1169.393825
3.653165,65.906823,256.844821,1171.958992
3.663165,65.862208,257.500789,1174.530720
3.673165,65.817458,258.156372,1177.109006
3.683165,65.772471,258.811572,1179.693846
3.693165,65.727434,259.466389,1182.285236
3.703165,65.681972,260.120823,1184.883173
3.713165,65.636278,260.774870,1187.487651
3.723165,65.590418,261.428528,1190.098669
3.733165,65.544508,262.081793,1192.716221
3.743165,65.498543,262.734660,1195.340303
3.753165,65.452711,263.387120,1197.970912
3.763165,65.406818,264.039162,1200.608044
3.773165,65.360913,264.690780,1203.251694
3.783165,65.314944,265.341969,1205.901858
3.793165,65.268952,265.992724,1208.558532
3.803165,65.222846,266.643040,1211.221711
3.813165,65.176446,267.292908,1213.891392
3.823165,65.129961,267.942321,1216.567568
3.833165,65.083508,268.591273,1219.250236
3.843165,65.037030,269.239760,1221.939392
3.853165,64.990542,269.887779,1224.635030
3.863165,64.944029,270.535325,1227.337146
3.873165,64.897502,271.182395,1230.045735
3.883165,64.850906,271.828986,1232.760792
3.893165,64.803949,272.475097,1235.482313
3.903165,64.756792,273.120724,1238.210293
3.913165,64.709571,273.765866,1240.944726
3.923165,64.662105,274.410523,1243.685608
3.933165,64.614269,275.054696,1246.432935
3.943165,64.565906,275.698386,1249.186701
3.953165,64.517418,276.341595,1251.946901
3.963165,64.468720,276.984327,1254.713531
3.973165,64.419739,277.626583,1257.486586
3.983165,64.370167,278.268366,1260.266061
3.993165,64.310256,278.909631,1263.051951
4.003165,64.229318,279.550236,1265.844251
4.013165,64.147879,280.190058,1268.642954
4.023165,64.066059,280.829067,1271.448050
4.033165,63.983805,281.467294,1274.259532
4.043165,63.900303,282.104764,1277.077393
4.053165,63.815915,282.741475,1279.901625
4.063165,63.731089,283.377419,1282.732220
4.073165,63.646072,284.012586,1285.569171
4.083165,63.560876,284.646974,1288.412469
4.093165,63.475589,285.280575,1291.262108
4.103165,63.390153,285.913378,1294.118078
4.113165,63.304542,286.545371,1296.980373
4.123165,63.218746,287.176545,1299.848983
4.133165,63.132663,287.806889,1302.723901
4.143165,63.046325,288.436391,1305.605118
4.153165,62.959237,289.065038,1308.492626
4.163165,62.871770,289.692814,1311.386416
4.173165,62.783964,290.319710,1314.286479
4.183165,62.695826,290.945714,1317.192807
4.193165,62.607307,291.570816,1320.105390
4.203165,62.518481,292.195006,1323.024220
4.213165,62.429320,292.818275,1325.949287
4.223165,62.339913,293.440614,1328.880583
4.233165,62.250053,294.062015,1331.818097
4.243165,62.159852,294.682470,1334.761820
4.253165,62.069433,295.301972,1337.711743
4.263165,61.978820,295.920517,1340.667856
4.273165,61.887922,296.538102,1343.630150
4.283165,61.796777,297.154727,1346.598615
4.293165,61.705364,297.770390,1349.573241
4.303165,61.613417,298.385091,1352.554019
4.313165,61.520951,298.998832,1355.540940
4.323165,61.427994,299.611614,1358.533993
4.333165,61.334523,300.223442,1361.533169
4.343165,61.240521,300.834319,1364.538459
4.353165,61.145944,301.444250,1367.549852
4.363165,61.050831,302.053242,1370.567340
4.373165,60.954913,302.661297,1373.590914
4.383165,60.858400,303.268418,1376.620563
4.393165,60.761338,303.874608,1379.656279
4.403165,60.663864,304.479869,1382.698052
4.413165,60.565937,305.084204,1385.745873
4.423165,60.467690,305.687613,1388.799733
4.433165,60.369180,306.290094,1391.859623
4.441182,60.286176,306.772412,1394.317050
4.442441,60.270178,306.848077,1394.703219
4.443699,60.254172,306.923723,1395.089482
4.444958,60.238195,306.999349,1395.475841
4.446217,60.222196,307.074956,1395.862295
4.447475,60.206185,307.150544,1396.248844
4.449992,60.174193,307.301661,1397.022228
4.452510,60.142184,307.452702,1397.795991
4.455027,60.110156,307.603665,1398.570135
4.457544,60.078141,307.754552,1399.344659
4.462135,60.019745,308.029488,1400.757950
4.466725,59.961306,308.304167,1402.172503
4.471315,59.902900,308.578588,1403.588316
4.475905,59.844429,308.852751,1405.005388
4.480495,59.785952,309.126654,1406.423717
4.487650,59.694790,309.553082,1408.637044
4.494805,59.602969,309.978872,1410.853420
4.501960,59.511129,310.404015,1413.072839
4.509115,59.419227,310.828506,1415.295299
4.516270,59.327262,311.252340,1417.520793
4.524334,59.223529,311.729196,1420.032479
4.532397,59.119668,312.205213,1422.548006
4.540461,59.015677,312.680387,1425.067369
4.548524,58.911533,313.154714,1427.590559
4.556588,58.816290,313.628228,1430.117571
4.564651,58.722417,314.100991,1432.648399
4.572715,58.628421,314.573044,1435.183035
4.574012,58.613307,314.648939,1435.591256
4.575310,58.598154,314.724814,1435.999576
4.576607,58.583031,314.800671,1436.407994
4.577905,58.567885,314.876509,1436.816511
4.579202,58.552773,314.952329,1437.225126
